# Pulseq sequence file
# Created by PyPulseq

[VERSION]
major 1
minor 3
revision 1post1

[DEFINITIONS]
num_meas 30 
tp 0.016 
td 0 
dcsat 1 
n_pulses 160 160 160 160 160 160 160 160 160 160 160 160 160 160 160 160 160 160 160 160 160 160 160 160 160 160 160 160 160 160 
tsat 2.56 2.56 2.56 2.56 2.56 2.56 2.56 2.56 2.56 2.56 2.56 2.56 2.56 2.56 2.56 2.56 2.56 2.56 2.56 2.56 2.56 2.56 2.56 2.56 2.56 2.56 2.56 2.56 2.56 2.56 
trec 0.94 0.94 0.94 0.94 0.94 0.94 0.94 0.94 0.94 0.94 0.94 0.94 0.94 0.94 0.94 0.94 0.94 0.94 0.94 0.94 0.94 0.94 0.94 0.94 0.94 0.94 0.94 0.94 0.94 0.94 
spoiling 1 
seq_id_string seq 
b1pa 2 2 1.7 1.5 1.2 1.2 3 0.5 3 1 2.2 3.2 1.5 0.7 1.5 2.2 2.5 1.2 3 0.2 1.5 2.5 0.7 4 3.2 3.5 1.5 2.7 0.7 0.5 
b1rms 2 2 1.7 1.5 1.2 1.2 3 0.5 3 1 2.2 3.2 1.5 0.7 1.5 2.2 2.5 1.2 3 0.2 1.5 2.5 0.7 4 3.2 3.5 1.5 2.7 0.7 0.5 
offsets_ppm 3.5 3.5 3.5 3.5 3.5 3.5 3.5 3.5 3.5 3.5 3.5 3.5 3.5 3.5 3.5 3.5 3.5 3.5 3.5 3.5 3.5 3.5 3.5 3.5 3.5 3.5 3.5 3.5 3.5 3.5 
gamma_hz 42.5763823 
freq 127.7292 
b0 3.00000124 

# Format of blocks:
#  #  D RF  GX  GY  GZ ADC EXT
[BLOCKS]
    1  0  1   0   0   0  0  0
    2  1  0   0   0   0  0  0
    3  0  2   0   0   0  0  0
    4  1  0   0   0   0  0  0
    5  0  3   0   0   0  0  0
    6  2  0   0   0   0  0  0
    7  0  4   0   0   0  0  0
    8  1  0   0   0   0  0  0
    9  0  5   0   0   0  0  0
   10  1  0   0   0   0  0  0
   11  0  6   0   0   0  0  0
   12  2  0   0   0   0  0  0
   13  0  7   0   0   0  0  0
   14  1  0   0   0   0  0  0
   15  0  8   0   0   0  0  0
   16  1  0   0   0   0  0  0
   17  0  9   0   0   0  0  0
   18  2  0   0   0   0  0  0
   19  0 10   0   0   0  0  0
   20  1  0   0   0   0  0  0
   21  0 11   0   0   0  0  0
   22  1  0   0   0   0  0  0
   23  0 12   0   0   0  0  0
   24  2  0   0   0   0  0  0
   25  0 13   0   0   0  0  0
   26  1  0   0   0   0  0  0
   27  0 14   0   0   0  0  0
   28  1  0   0   0   0  0  0
   29  0 15   0   0   0  0  0
   30  2  0   0   0   0  0  0
   31  0 16   0   0   0  0  0
   32  1  0   0   0   0  0  0
   33  0 17   0   0   0  0  0
   34  1  0   0   0   0  0  0
   35  0 18   0   0   0  0  0
   36  2  0   0   0   0  0  0
   37  0 19   0   0   0  0  0
   38  1  0   0   0   0  0  0
   39  0 20   0   0   0  0  0
   40  1  0   0   0   0  0  0
   41  0 21   0   0   0  0  0
   42  2  0   0   0   0  0  0
   43  0 22   0   0   0  0  0
   44  1  0   0   0   0  0  0
   45  0 23   0   0   0  0  0
   46  1  0   0   0   0  0  0
   47  0 24   0   0   0  0  0
   48  2  0   0   0   0  0  0
   49  0 25   0   0   0  0  0
   50  1  0   0   0   0  0  0
   51  0 26   0   0   0  0  0
   52  1  0   0   0   0  0  0
   53  0 27   0   0   0  0  0
   54  2  0   0   0   0  0  0
   55  0 28   0   0   0  0  0
   56  1  0   0   0   0  0  0
   57  0 29   0   0   0  0  0
   58  1  0   0   0   0  0  0
   59  0 30   0   0   0  0  0
   60  2  0   0   0   0  0  0
   61  0 31   0   0   0  0  0
   62  1  0   0   0   0  0  0
   63  0 32   0   0   0  0  0
   64  1  0   0   0   0  0  0
   65  0 33   0   0   0  0  0
   66  2  0   0   0   0  0  0
   67  0 34   0   0   0  0  0
   68  1  0   0   0   0  0  0
   69  0 35   0   0   0  0  0
   70  1  0   0   0   0  0  0
   71  0 36   0   0   0  0  0
   72  2  0   0   0   0  0  0
   73  0 37   0   0   0  0  0
   74  1  0   0   0   0  0  0
   75  0 38   0   0   0  0  0
   76  1  0   0   0   0  0  0
   77  0 39   0   0   0  0  0
   78  2  0   0   0   0  0  0
   79  0 40   0   0   0  0  0
   80  1  0   0   0   0  0  0
   81  0 41   0   0   0  0  0
   82  1  0   0   0   0  0  0
   83  0 42   0   0   0  0  0
   84  2  0   0   0   0  0  0
   85  0 43   0   0   0  0  0
   86  1  0   0   0   0  0  0
   87  0 44   0   0   0  0  0
   88  1  0   0   0   0  0  0
   89  0 45   0   0   0  0  0
   90  2  0   0   0   0  0  0
   91  0 46   0   0   0  0  0
   92  1  0   0   0   0  0  0
   93  0 47   0   0   0  0  0
   94  1  0   0   0   0  0  0
   95  0 48   0   0   0  0  0
   96  2  0   0   0   0  0  0
   97  0 49   0   0   0  0  0
   98  1  0   0   0   0  0  0
   99  0 50   0   0   0  0  0
  100  1  0   0   0   0  0  0
  101  0 51   0   0   0  0  0
  102  2  0   0   0   0  0  0
  103  0 52   0   0   0  0  0
  104  1  0   0   0   0  0  0
  105  0 53   0   0   0  0  0
  106  1  0   0   0   0  0  0
  107  0 54   0   0   0  0  0
  108  2  0   0   0   0  0  0
  109  0 55   0   0   0  0  0
  110  1  0   0   0   0  0  0
  111  0 56   0   0   0  0  0
  112  1  0   0   0   0  0  0
  113  0 57   0   0   0  0  0
  114  2  0   0   0   0  0  0
  115  0 58   0   0   0  0  0
  116  1  0   0   0   0  0  0
  117  0 59   0   0   0  0  0
  118  1  0   0   0   0  0  0
  119  0 60   0   0   0  0  0
  120  2  0   0   0   0  0  0
  121  0 61   0   0   0  0  0
  122  1  0   0   0   0  0  0
  123  0 62   0   0   0  0  0
  124  1  0   0   0   0  0  0
  125  0 63   0   0   0  0  0
  126  2  0   0   0   0  0  0
  127  0 64   0   0   0  0  0
  128  1  0   0   0   0  0  0
  129  0 65   0   0   0  0  0
  130  1  0   0   0   0  0  0
  131  0 66   0   0   0  0  0
  132  2  0   0   0   0  0  0
  133  0 67   0   0   0  0  0
  134  1  0   0   0   0  0  0
  135  0 68   0   0   0  0  0
  136  1  0   0   0   0  0  0
  137  0 69   0   0   0  0  0
  138  2  0   0   0   0  0  0
  139  0 70   0   0   0  0  0
  140  1  0   0   0   0  0  0
  141  0 71   0   0   0  0  0
  142  1  0   0   0   0  0  0
  143  0 72   0   0   0  0  0
  144  2  0   0   0   0  0  0
  145  0 73   0   0   0  0  0
  146  1  0   0   0   0  0  0
  147  0 74   0   0   0  0  0
  148  1  0   0   0   0  0  0
  149  0 75   0   0   0  0  0
  150  2  0   0   0   0  0  0
  151  0 76   0   0   0  0  0
  152  1  0   0   0   0  0  0
  153  0 77   0   0   0  0  0
  154  1  0   0   0   0  0  0
  155  0 78   0   0   0  0  0
  156  2  0   0   0   0  0  0
  157  0 79   0   0   0  0  0
  158  1  0   0   0   0  0  0
  159  0 80   0   0   0  0  0
  160  1  0   0   0   0  0  0
  161  0 81   0   0   0  0  0
  162  2  0   0   0   0  0  0
  163  0 82   0   0   0  0  0
  164  1  0   0   0   0  0  0
  165  0 83   0   0   0  0  0
  166  1  0   0   0   0  0  0
  167  0 84   0   0   0  0  0
  168  2  0   0   0   0  0  0
  169  0 85   0   0   0  0  0
  170  1  0   0   0   0  0  0
  171  0 86   0   0   0  0  0
  172  1  0   0   0   0  0  0
  173  0 87   0   0   0  0  0
  174  2  0   0   0   0  0  0
  175  0 88   0   0   0  0  0
  176  1  0   0   0   0  0  0
  177  0 89   0   0   0  0  0
  178  1  0   0   0   0  0  0
  179  0 90   0   0   0  0  0
  180  2  0   0   0   0  0  0
  181  0 91   0   0   0  0  0
  182  1  0   0   0   0  0  0
  183  0 92   0   0   0  0  0
  184  1  0   0   0   0  0  0
  185  0 93   0   0   0  0  0
  186  2  0   0   0   0  0  0
  187  0 94   0   0   0  0  0
  188  1  0   0   0   0  0  0
  189  0 95   0   0   0  0  0
  190  1  0   0   0   0  0  0
  191  0 96   0   0   0  0  0
  192  2  0   0   0   0  0  0
  193  0 97   0   0   0  0  0
  194  1  0   0   0   0  0  0
  195  0 98   0   0   0  0  0
  196  1  0   0   0   0  0  0
  197  0 99   0   0   0  0  0
  198  2  0   0   0   0  0  0
  199  0 100   0   0   0  0  0
  200  1  0   0   0   0  0  0
  201  0 101   0   0   0  0  0
  202  1  0   0   0   0  0  0
  203  0 102   0   0   0  0  0
  204  2  0   0   0   0  0  0
  205  0 103   0   0   0  0  0
  206  1  0   0   0   0  0  0
  207  0 104   0   0   0  0  0
  208  1  0   0   0   0  0  0
  209  0 105   0   0   0  0  0
  210  2  0   0   0   0  0  0
  211  0 106   0   0   0  0  0
  212  1  0   0   0   0  0  0
  213  0 107   0   0   0  0  0
  214  1  0   0   0   0  0  0
  215  0 108   0   0   0  0  0
  216  2  0   0   0   0  0  0
  217  0 109   0   0   0  0  0
  218  1  0   0   0   0  0  0
  219  0 110   0   0   0  0  0
  220  1  0   0   0   0  0  0
  221  0 111   0   0   0  0  0
  222  2  0   0   0   0  0  0
  223  0 112   0   0   0  0  0
  224  1  0   0   0   0  0  0
  225  0 113   0   0   0  0  0
  226  1  0   0   0   0  0  0
  227  0 114   0   0   0  0  0
  228  2  0   0   0   0  0  0
  229  0 115   0   0   0  0  0
  230  1  0   0   0   0  0  0
  231  0 116   0   0   0  0  0
  232  1  0   0   0   0  0  0
  233  0 117   0   0   0  0  0
  234  2  0   0   0   0  0  0
  235  0 118   0   0   0  0  0
  236  1  0   0   0   0  0  0
  237  0 119   0   0   0  0  0
  238  1  0   0   0   0  0  0
  239  0 120   0   0   0  0  0
  240  2  0   0   0   0  0  0
  241  0 121   0   0   0  0  0
  242  1  0   0   0   0  0  0
  243  0 122   0   0   0  0  0
  244  1  0   0   0   0  0  0
  245  0 123   0   0   0  0  0
  246  2  0   0   0   0  0  0
  247  0 124   0   0   0  0  0
  248  1  0   0   0   0  0  0
  249  0 125   0   0   0  0  0
  250  1  0   0   0   0  0  0
  251  0 126   0   0   0  0  0
  252  2  0   0   0   0  0  0
  253  0 127   0   0   0  0  0
  254  1  0   0   0   0  0  0
  255  0 128   0   0   0  0  0
  256  1  0   0   0   0  0  0
  257  0 129   0   0   0  0  0
  258  2  0   0   0   0  0  0
  259  0 130   0   0   0  0  0
  260  1  0   0   0   0  0  0
  261  0 131   0   0   0  0  0
  262  1  0   0   0   0  0  0
  263  0 132   0   0   0  0  0
  264  2  0   0   0   0  0  0
  265  0 133   0   0   0  0  0
  266  1  0   0   0   0  0  0
  267  0 134   0   0   0  0  0
  268  1  0   0   0   0  0  0
  269  0 135   0   0   0  0  0
  270  2  0   0   0   0  0  0
  271  0 136   0   0   0  0  0
  272  1  0   0   0   0  0  0
  273  0 137   0   0   0  0  0
  274  1  0   0   0   0  0  0
  275  0 138   0   0   0  0  0
  276  2  0   0   0   0  0  0
  277  0 139   0   0   0  0  0
  278  1  0   0   0   0  0  0
  279  0 140   0   0   0  0  0
  280  1  0   0   0   0  0  0
  281  0 141   0   0   0  0  0
  282  2  0   0   0   0  0  0
  283  0 142   0   0   0  0  0
  284  1  0   0   0   0  0  0
  285  0 143   0   0   0  0  0
  286  1  0   0   0   0  0  0
  287  0 144   0   0   0  0  0
  288  2  0   0   0   0  0  0
  289  0 145   0   0   0  0  0
  290  1  0   0   0   0  0  0
  291  0 146   0   0   0  0  0
  292  1  0   0   0   0  0  0
  293  0 147   0   0   0  0  0
  294  2  0   0   0   0  0  0
  295  0 148   0   0   0  0  0
[RF]
1      29.9564 1 2 100 0 -0.698132
2            2 3 4 100 447.052 0.872665
3      29.9564 1 2 100 0 3.40375
4      29.9564 1 2 100 0 0.174533
5            2 3 4 100 447.052 1.74533
6      29.9564 1 2 100 0 4.27642
7      29.9564 1 2 100 0 1.0472
8            2 3 4 100 447.052 2.61799
9      29.9564 1 2 100 0 5.14908
10      29.9564 1 2 100 0 1.91986
11            2 3 4 100 447.052 3.49066
12      29.9564 1 2 100 0 6.02175
13      29.9564 1 2 100 0 2.79253
14            2 3 4 100 447.052 4.36332
15      29.9564 1 2 100 0 6.89441
16      29.9564 1 2 100 0 3.66519
17            2 3 4 100 447.052 5.23599
18      29.9564 1 2 100 0 7.76708
19      29.9564 1 2 100 0 4.53786
20            2 3 4 100 447.052 6.10865
21      29.9564 1 2 100 0 8.63974
22      29.9564 1 2 100 0 5.41052
23            2 3 4 100 447.052 6.98132
24      29.9564 1 2 100 0 9.51241
25      29.9564 1 2 100 0 6.28319
26            2 3 4 100 447.052 7.85398
27      29.9564 1 2 100 0 10.3851
28      29.9564 1 2 100 0 7.15585
29            2 3 4 100 447.052 8.72665
30      29.9564 1 2 100 0 11.2577
31      29.9564 1 2 100 0 8.02851
32            2 3 4 100 447.052 9.59931
33      29.9564 1 2 100 0 12.1304
34      29.9564 1 2 100 0 8.90118
35            2 3 4 100 447.052 10.472
36      29.9564 1 2 100 0 13.0031
37      29.9564 1 2 100 0 9.77384
38            2 3 4 100 447.052 11.3446
39      29.9564 1 2 100 0 13.8757
40      29.9564 1 2 100 0 10.6465
41            2 3 4 100 447.052 12.2173
42      29.9564 1 2 100 0 14.7484
43      29.9564 1 2 100 0 11.5192
44            2 3 4 100 447.052 13.09
45      29.9564 1 2 100 0 15.6211
46      29.9564 1 2 100 0 12.3918
47            2 3 4 100 447.052 13.9626
48      29.9564 1 2 100 0 16.4937
49      29.9564 1 2 100 0 13.2645
50            2 3 4 100 447.052 14.8353
51      29.9564 1 2 100 0 17.3664
52      29.9564 1 2 100 0 14.1372
53            2 3 4 100 447.052 15.708
54      29.9564 1 2 100 0 18.2391
55      29.9564 1 2 100 0 15.0098
56            2 3 4 100 447.052 16.5806
57      29.9564 1 2 100 0 19.1117
58      29.9564 1 2 100 0 15.8825
59            2 3 4 100 447.052 17.4533
60      29.9564 1 2 100 0 19.9844
61      29.9564 1 2 100 0 16.7552
62            2 3 4 100 447.052 18.326
63      29.9564 1 2 100 0 20.857
64      29.9564 1 2 100 0 17.6278
65            2 3 4 100 447.052 19.1986
66      29.9564 1 2 100 0 21.7297
67      29.9564 1 2 100 0 18.5005
68            2 3 4 100 447.052 20.0713
69      29.9564 1 2 100 0 22.6024
70      29.9564 1 2 100 0 19.3732
71            2 3 4 100 447.052 20.944
72      29.9564 1 2 100 0 23.475
73      29.9564 1 2 100 0 20.2458
74            2 3 4 100 447.052 21.8166
75      29.9564 1 2 100 0 24.3477
76      29.9564 1 2 100 0 21.1185
77            2 3 4 100 447.052 22.6893
78      29.9564 1 2 100 0 25.2204
79      29.9564 1 2 100 0 21.9911
80            2 3 4 100 447.052 23.5619
81      29.9564 1 2 100 0 26.093
82      29.9564 1 2 100 0 22.8638
83            2 3 4 100 447.052 24.4346
84      29.9564 1 2 100 0 26.9657
85      29.9564 1 2 100 0 23.7365
86            2 3 4 100 447.052 25.3073
87      29.9564 1 2 100 0 27.8384
88      29.9564 1 2 100 0 24.6091
89            2 3 4 100 447.052 26.1799
90      29.9564 1 2 100 0 28.711
91      29.9564 1 2 100 0 25.4818
92            2 3 4 100 447.052 27.0526
93      29.9564 1 2 100 0 29.5837
94      29.9564 1 2 100 0 26.3545
95            2 3 4 100 447.052 27.9253
96      29.9564 1 2 100 0 30.4564
97      29.9564 1 2 100 0 27.2271
98            2 3 4 100 447.052 28.7979
99      29.9564 1 2 100 0 31.329
100      29.9564 1 2 100 0 28.0998
101            2 3 4 100 447.052 29.6706
102      29.9564 1 2 100 0 32.2017
103      29.9564 1 2 100 0 28.9725
104            2 3 4 100 447.052 30.5433
105      29.9564 1 2 100 0 33.0744
106      29.9564 1 2 100 0 29.8451
107            2 3 4 100 447.052 31.4159
108      29.9564 1 2 100 0 33.947
109      29.9564 1 2 100 0 30.7178
110            2 3 4 100 447.052 32.2886
111      29.9564 1 2 100 0 34.8197
112      29.9564 1 2 100 0 31.5905
113            2 3 4 100 447.052 33.1613
114      29.9564 1 2 100 0 35.6923
115      29.9564 1 2 100 0 32.4631
116            2 3 4 100 447.052 34.0339
117      29.9564 1 2 100 0 36.565
118      29.9564 1 2 100 0 33.3358
119            2 3 4 100 447.052 34.9066
120      29.9564 1 2 100 0 37.4377
121      29.9564 1 2 100 0 34.2085
122            2 3 4 100 447.052 35.7792
123      29.9564 1 2 100 0 38.3103
124      29.9564 1 2 100 0 35.0811
125            2 3 4 100 447.052 36.6519
126      29.9564 1 2 100 0 39.183
127      29.9564 1 2 100 0 35.9538
128            2 3 4 100 447.052 37.5246
129      29.9564 1 2 100 0 40.0557
130      29.9564 1 2 100 0 36.8264
131            2 3 4 100 447.052 38.3972
132      29.9564 1 2 100 0 40.9283
133      29.9564 1 2 100 0 37.6991
134            2 3 4 100 447.052 39.2699
135      29.9564 1 2 100 0 41.801
136      29.9564 1 2 100 0 38.5718
137            2 3 4 100 447.052 40.1426
138      29.9564 1 2 100 0 42.6737
139      29.9564 1 2 100 0 39.4444
140            2 3 4 100 447.052 41.0152
141      29.9564 1 2 100 0 43.5463
142      29.9564 1 2 100 0 40.3171
143            2 3 4 100 447.052 41.8879
144      29.9564 1 2 100 0 44.419
145      29.9564 1 2 100 0 41.1898
146            2 3 4 100 447.052 42.7606
147      29.9564 1 2 100 0 45.2917
148      29.9564 1 2 100 0 42.0624
149            2 3 4 100 447.052 43.6332
150      29.9564 1 2 100 0 46.1643
151      29.9564 1 2 100 0 42.9351
152            2 3 4 100 447.052 44.5059
153      29.9564 1 2 100 0 47.037
154      29.9564 1 2 100 0 43.8078
155            2 3 4 100 447.052 45.3786
156      29.9564 1 2 100 0 47.9096
157      29.9564 1 2 100 0 44.6804
158            2 3 4 100 447.052 46.2512
159      29.9564 1 2 100 0 48.7823
160      29.9564 1 2 100 0 45.5531
161            2 3 4 100 447.052 47.1239
162      29.9564 1 2 100 0 49.655
163      29.9564 1 2 100 0 46.4258
164            2 3 4 100 447.052 47.9966
165      29.9564 1 2 100 0 50.5276
166      29.9564 1 2 100 0 47.2984
167            2 3 4 100 447.052 48.8692
168      29.9564 1 2 100 0 51.4003
169      29.9564 1 2 100 0 48.1711
170            2 3 4 100 447.052 49.7419
171      29.9564 1 2 100 0 52.273
172      29.9564 1 2 100 0 49.0438
173            2 3 4 100 447.052 50.6145
174      29.9564 1 2 100 0 53.1456
175      29.9564 1 2 100 0 49.9164
176            2 3 4 100 447.052 51.4872
177      29.9564 1 2 100 0 54.0183
178      29.9564 1 2 100 0 50.7891
179            2 3 4 100 447.052 52.3599
180      29.9564 1 2 100 0 54.891
181      29.9564 1 2 100 0 51.6617
182            2 3 4 100 447.052 53.2325
183      29.9564 1 2 100 0 55.7636
184      29.9564 1 2 100 0 52.5344
185            2 3 4 100 447.052 54.1052
186      29.9564 1 2 100 0 56.6363
187      29.9564 1 2 100 0 53.4071
188            2 3 4 100 447.052 54.9779
189      29.9564 1 2 100 0 57.509
190      29.9564 1 2 100 0 54.2797
191            2 3 4 100 447.052 55.8505
192      29.9564 1 2 100 0 58.3816
193      29.9564 1 2 100 0 55.1524
194            2 3 4 100 447.052 56.7232
195      29.9564 1 2 100 0 59.2543
196      29.9564 1 2 100 0 56.0251
197            2 3 4 100 447.052 57.5959
198      29.9564 1 2 100 0 60.127
199      29.9564 1 2 100 0 56.8977
200            2 3 4 100 447.052 58.4685
201      29.9564 1 2 100 0 60.9996
202      29.9564 1 2 100 0 57.7704
203            2 3 4 100 447.052 59.3412
204      29.9564 1 2 100 0 61.8723
205      29.9564 1 2 100 0 58.6431
206            2 3 4 100 447.052 60.2139
207      29.9564 1 2 100 0 62.7449
208      29.9564 1 2 100 0 59.5157
209            2 3 4 100 447.052 61.0865
210      29.9564 1 2 100 0 63.6176
211      29.9564 1 2 100 0 60.3884
212            2 3 4 100 447.052 61.9592
213      29.9564 1 2 100 0 64.4903
214      29.9564 1 2 100 0 61.2611
215            2 3 4 100 447.052 62.8319
216      29.9564 1 2 100 0 65.3629
217      29.9564 1 2 100 0 62.1337
218            2 3 4 100 447.052 63.7045
219      29.9564 1 2 100 0 66.2356
220      29.9564 1 2 100 0 63.0064
221            2 3 4 100 447.052 64.5772
222      29.9564 1 2 100 0 67.1083
223      29.9564 1 2 100 0 63.8791
224            2 3 4 100 447.052 65.4498
225      29.9564 1 2 100 0 67.9809
226      29.9564 1 2 100 0 64.7517
227            2 3 4 100 447.052 66.3225
228      29.9564 1 2 100 0 68.8536
229      29.9564 1 2 100 0 65.6244
230            2 3 4 100 447.052 67.1952
231      29.9564 1 2 100 0 69.7263
232      29.9564 1 2 100 0 66.497
233            2 3 4 100 447.052 68.0678
234      29.9564 1 2 100 0 70.5989
235      29.9564 1 2 100 0 67.3697
236            2 3 4 100 447.052 68.9405
237      29.9564 1 2 100 0 71.4716
238      29.9564 1 2 100 0 68.2424
239            2 3 4 100 447.052 69.8132
240      29.9564 1 2 100 0 72.3443
241      29.9564 1 2 100 0 69.115
242            2 3 4 100 447.052 70.6858
243      29.9564 1 2 100 0 73.2169
244      29.9564 1 2 100 0 69.9877
245            2 3 4 100 447.052 71.5585
246      29.9564 1 2 100 0 74.0896
247      29.9564 1 2 100 0 70.8604
248            2 3 4 100 447.052 72.4312
249      29.9564 1 2 100 0 74.9623
250      29.9564 1 2 100 0 71.733
251            2 3 4 100 447.052 73.3038
252      29.9564 1 2 100 0 75.8349
253      29.9564 1 2 100 0 72.6057
254            2 3 4 100 447.052 74.1765
255      29.9564 1 2 100 0 76.7076
256      29.9564 1 2 100 0 73.4784
257            2 3 4 100 447.052 75.0492
258      29.9564 1 2 100 0 77.5802
259      29.9564 1 2 100 0 74.351
260            2 3 4 100 447.052 75.9218
261      29.9564 1 2 100 0 78.4529
262      29.9564 1 2 100 0 75.2237
263            2 3 4 100 447.052 76.7945
264      29.9564 1 2 100 0 79.3256
265      29.9564 1 2 100 0 76.0964
266            2 3 4 100 447.052 77.6672
267      29.9564 1 2 100 0 80.1982
268      29.9564 1 2 100 0 76.969
269            2 3 4 100 447.052 78.5398
270      29.9564 1 2 100 0 81.0709
271      29.9564 1 2 100 0 77.8417
272            2 3 4 100 447.052 79.4125
273      29.9564 1 2 100 0 81.9436
274      29.9564 1 2 100 0 78.7143
275            2 3 4 100 447.052 80.2851
276      29.9564 1 2 100 0 82.8162
277      29.9564 1 2 100 0 79.587
278            2 3 4 100 447.052 81.1578
279      29.9564 1 2 100 0 83.6889
280      29.9564 1 2 100 0 80.4597
281            2 3 4 100 447.052 82.0305
282      29.9564 1 2 100 0 84.5616
283      29.9564 1 2 100 0 81.3323
284            2 3 4 100 447.052 82.9031
285      29.9564 1 2 100 0 85.4342
286      29.9564 1 2 100 0 82.205
287            2 3 4 100 447.052 83.7758
288      29.9564 1 2 100 0 86.3069
289      29.9564 1 2 100 0 83.0777
290            2 3 4 100 447.052 84.6485
291      29.9564 1 2 100 0 87.1796
292      29.9564 1 2 100 0 83.9503
293            2 3 4 100 447.052 85.5211
294      29.9564 1 2 100 0 88.0522
295      29.9564 1 2 100 0 84.823
296            2 3 4 100 447.052 86.3938
297      29.9564 1 2 100 0 88.9249
298      29.9564 1 2 100 0 85.6957
299            2 3 4 100 447.052 87.2665
300      29.9564 1 2 100 0 89.7976
301      29.9564 1 2 100 0 86.5683
302            2 3 4 100 447.052 88.1391
303      29.9564 1 2 100 0 90.6702
304      29.9564 1 2 100 0 87.441
305            2 3 4 100 447.052 89.0118
306      29.9564 1 2 100 0 91.5429
307      29.9564 1 2 100 0 88.3137
308            2 3 4 100 447.052 89.8845
309      29.9564 1 2 100 0 92.4155
310      29.9564 1 2 100 0 89.1863
311            2 3 4 100 447.052 90.7571
312      29.9564 1 2 100 0 93.2882
313      29.9564 1 2 100 0 90.059
314            2 3 4 100 447.052 91.6298
315      29.9564 1 2 100 0 94.1609
316      29.9564 1 2 100 0 90.9317
317            2 3 4 100 447.052 92.5025
318      29.9564 1 2 100 0 95.0335
319      29.9564 1 2 100 0 91.8043
320            2 3 4 100 447.052 93.3751
321      29.9564 1 2 100 0 95.9062
322      29.9564 1 2 100 0 92.677
323            2 3 4 100 447.052 94.2478
324      29.9564 1 2 100 0 96.7789
325      29.9564 1 2 100 0 93.5496
326            2 3 4 100 447.052 95.1204
327      29.9564 1 2 100 0 97.6515
328      29.9564 1 2 100 0 94.4223
329            2 3 4 100 447.052 95.9931
330      29.9564 1 2 100 0 98.5242
331      29.9564 1 2 100 0 95.295
332            2 3 4 100 447.052 96.8658
333      29.9564 1 2 100 0 99.3969
334      29.9564 1 2 100 0 96.1676
335            2 3 4 100 447.052 97.7384
336      29.9564 1 2 100 0 100.27
337      29.9564 1 2 100 0 97.0403
338            2 3 4 100 447.052 98.6111
339      29.9564 1 2 100 0 101.142
340      29.9564 1 2 100 0 97.913
341            2 3 4 100 447.052 99.4838
342      29.9564 1 2 100 0 102.015
343      29.9564 1 2 100 0 98.7856
344            2 3 4 100 447.052 100.356
345      29.9564 1 2 100 0 102.888
346      29.9564 1 2 100 0 99.6583
347            2 3 4 100 447.052 101.229
348      29.9564 1 2 100 0 103.76
349      29.9564 1 2 100 0 100.531
350            2 3 4 100 447.052 102.102
351      29.9564 1 2 100 0 104.633
352      29.9564 1 2 100 0 101.404
353            2 3 4 100 447.052 102.974
354      29.9564 1 2 100 0 105.506
355      29.9564 1 2 100 0 102.276
356            2 3 4 100 447.052 103.847
357      29.9564 1 2 100 0 106.378
358      29.9564 1 2 100 0 103.149
359            2 3 4 100 447.052 104.72
360      29.9564 1 2 100 0 107.251
361      29.9564 1 2 100 0 104.022
362            2 3 4 100 447.052 105.592
363      29.9564 1 2 100 0 108.124
364      29.9564 1 2 100 0 104.894
365            2 3 4 100 447.052 106.465
366      29.9564 1 2 100 0 108.996
367      29.9564 1 2 100 0 105.767
368            2 3 4 100 447.052 107.338
369      29.9564 1 2 100 0 109.869
370      29.9564 1 2 100 0 106.64
371            2 3 4 100 447.052 108.21
372      29.9564 1 2 100 0 110.742
373      29.9564 1 2 100 0 107.512
374            2 3 4 100 447.052 109.083
375      29.9564 1 2 100 0 111.614
376      29.9564 1 2 100 0 108.385
377            2 3 4 100 447.052 109.956
378      29.9564 1 2 100 0 112.487
379      29.9564 1 2 100 0 109.258
380            2 3 4 100 447.052 110.828
381      29.9564 1 2 100 0 113.359
382      29.9564 1 2 100 0 110.13
383            2 3 4 100 447.052 111.701
384      29.9564 1 2 100 0 114.232
385      29.9564 1 2 100 0 111.003
386            2 3 4 100 447.052 112.574
387      29.9564 1 2 100 0 115.105
388      29.9564 1 2 100 0 111.876
389            2 3 4 100 447.052 113.446
390      29.9564 1 2 100 0 115.977
391      29.9564 1 2 100 0 112.748
392            2 3 4 100 447.052 114.319
393      29.9564 1 2 100 0 116.85
394      29.9564 1 2 100 0 113.621
395            2 3 4 100 447.052 115.192
396      29.9564 1 2 100 0 117.723
397      29.9564 1 2 100 0 114.494
398            2 3 4 100 447.052 116.064
399      29.9564 1 2 100 0 118.595
400      29.9564 1 2 100 0 115.366
401            2 3 4 100 447.052 116.937
402      29.9564 1 2 100 0 119.468
403      29.9564 1 2 100 0 116.239
404            2 3 4 100 447.052 117.81
405      29.9564 1 2 100 0 120.341
406      29.9564 1 2 100 0 117.112
407            2 3 4 100 447.052 118.682
408      29.9564 1 2 100 0 121.213
409      29.9564 1 2 100 0 117.984
410            2 3 4 100 447.052 119.555
411      29.9564 1 2 100 0 122.086
412      29.9564 1 2 100 0 118.857
413            2 3 4 100 447.052 120.428
414      29.9564 1 2 100 0 122.959
415      29.9564 1 2 100 0 119.73
416            2 3 4 100 447.052 121.3
417      29.9564 1 2 100 0 123.831
418      29.9564 1 2 100 0 120.602
419            2 3 4 100 447.052 122.173
420      29.9564 1 2 100 0 124.704
421      29.9564 1 2 100 0 121.475
422            2 3 4 100 447.052 123.046
423      29.9564 1 2 100 0 125.577
424      29.9564 1 2 100 0 122.348
425            2 3 4 100 447.052 123.918
426      29.9564 1 2 100 0 126.449
427      29.9564 1 2 100 0 123.22
428            2 3 4 100 447.052 124.791
429      29.9564 1 2 100 0 127.322
430      29.9564 1 2 100 0 124.093
431            2 3 4 100 447.052 125.664
432      29.9564 1 2 100 0 128.195
433      29.9564 1 2 100 0 124.966
434            2 3 4 100 447.052 126.536
435      29.9564 1 2 100 0 129.067
436      29.9564 1 2 100 0 125.838
437            2 3 4 100 447.052 127.409
438      29.9564 1 2 100 0 129.94
439      29.9564 1 2 100 0 126.711
440            2 3 4 100 447.052 128.282
441      29.9564 1 2 100 0 130.813
442      29.9564 1 2 100 0 127.584
443            2 3 4 100 447.052 129.154
444      29.9564 1 2 100 0 131.685
445      29.9564 1 2 100 0 128.456
446            2 3 4 100 447.052 130.027
447      29.9564 1 2 100 0 132.558
448      29.9564 1 2 100 0 129.329
449            2 3 4 100 447.052 130.9
450      29.9564 1 2 100 0 133.431
451      29.9564 1 2 100 0 130.202
452            2 3 4 100 447.052 131.772
453      29.9564 1 2 100 0 134.303
454      29.9564 1 2 100 0 131.074
455            2 3 4 100 447.052 132.645
456      29.9564 1 2 100 0 135.176
457      29.9564 1 2 100 0 131.947
458            2 3 4 100 447.052 133.518
459      29.9564 1 2 100 0 136.049
460      29.9564 1 2 100 0 132.82
461            2 3 4 100 447.052 134.39
462      29.9564 1 2 100 0 136.921
463      29.9564 1 2 100 0 133.692
464            2 3 4 100 447.052 135.263
465      29.9564 1 2 100 0 137.794
466      29.9564 1 2 100 0 134.565
467            2 3 4 100 447.052 136.136
468      29.9564 1 2 100 0 138.667
469      29.9564 1 2 100 0 135.438
470            2 3 4 100 447.052 137.008
471      29.9564 1 2 100 0 139.539
472      29.9564 1 2 100 0 136.31
473            2 3 4 100 447.052 137.881
474      29.9564 1 2 100 0 140.412
475      29.9564 1 2 100 0 137.183
476            2 3 4 100 447.052 138.754
477      29.9564 1 2 100 0 141.285
478      29.9564 1 2 100 0 138.056
479            2 3 4 100 447.052 139.626
480      29.9564 1 2 100 0 142.157
481      25.5463 1 2 100 0 -0.698132
482          1.7 3 4 100 447.052 0.872665
483      25.5463 1 2 100 0 3.40375
484      25.5463 1 2 100 0 0.174533
485          1.7 3 4 100 447.052 1.74533
486      25.5463 1 2 100 0 4.27642
487      25.5463 1 2 100 0 1.0472
488          1.7 3 4 100 447.052 2.61799
489      25.5463 1 2 100 0 5.14908
490      25.5463 1 2 100 0 1.91986
491          1.7 3 4 100 447.052 3.49066
492      25.5463 1 2 100 0 6.02175
493      25.5463 1 2 100 0 2.79253
494          1.7 3 4 100 447.052 4.36332
495      25.5463 1 2 100 0 6.89441
496      25.5463 1 2 100 0 3.66519
497          1.7 3 4 100 447.052 5.23599
498      25.5463 1 2 100 0 7.76708
499      25.5463 1 2 100 0 4.53786
500          1.7 3 4 100 447.052 6.10865
501      25.5463 1 2 100 0 8.63974
502      25.5463 1 2 100 0 5.41052
503          1.7 3 4 100 447.052 6.98132
504      25.5463 1 2 100 0 9.51241
505      25.5463 1 2 100 0 6.28319
506          1.7 3 4 100 447.052 7.85398
507      25.5463 1 2 100 0 10.3851
508      25.5463 1 2 100 0 7.15585
509          1.7 3 4 100 447.052 8.72665
510      25.5463 1 2 100 0 11.2577
511      25.5463 1 2 100 0 8.02851
512          1.7 3 4 100 447.052 9.59931
513      25.5463 1 2 100 0 12.1304
514      25.5463 1 2 100 0 8.90118
515          1.7 3 4 100 447.052 10.472
516      25.5463 1 2 100 0 13.0031
517      25.5463 1 2 100 0 9.77384
518          1.7 3 4 100 447.052 11.3446
519      25.5463 1 2 100 0 13.8757
520      25.5463 1 2 100 0 10.6465
521          1.7 3 4 100 447.052 12.2173
522      25.5463 1 2 100 0 14.7484
523      25.5463 1 2 100 0 11.5192
524          1.7 3 4 100 447.052 13.09
525      25.5463 1 2 100 0 15.6211
526      25.5463 1 2 100 0 12.3918
527          1.7 3 4 100 447.052 13.9626
528      25.5463 1 2 100 0 16.4937
529      25.5463 1 2 100 0 13.2645
530          1.7 3 4 100 447.052 14.8353
531      25.5463 1 2 100 0 17.3664
532      25.5463 1 2 100 0 14.1372
533          1.7 3 4 100 447.052 15.708
534      25.5463 1 2 100 0 18.2391
535      25.5463 1 2 100 0 15.0098
536          1.7 3 4 100 447.052 16.5806
537      25.5463 1 2 100 0 19.1117
538      25.5463 1 2 100 0 15.8825
539          1.7 3 4 100 447.052 17.4533
540      25.5463 1 2 100 0 19.9844
541      25.5463 1 2 100 0 16.7552
542          1.7 3 4 100 447.052 18.326
543      25.5463 1 2 100 0 20.857
544      25.5463 1 2 100 0 17.6278
