# Pulseq sequence file
# Created by PyPulseq

[VERSION]
major 1
minor 3
revision 1post1

[DEFINITIONS]
num_meas 30 
tp 0.016 
td 0 
dcsat 1 
n_pulses 140 138 59 185 75 215 77 137 237 187 238 148 157 234 140 237 220 239 194 204 160 56 197 42 201 193 116 214 45 44 
tsat 2.235 2.203 0.929 2.955 1.188 3.429 1.225 2.189 3.777 2.978 3.806 2.365 2.499 3.734 2.237 3.777 3.505 3.814 3.1 3.251 2.555 0.89 3.144 0.658 3.214 3.082 1.854 3.411 0.71 0.691 
trec 0.819 0.2 0.911 0.17 1.471 0.17 1.669 1.126 0.17 0.17 0.17 0.17 0.466 0.17 0.709 0.17 0.44 0.17 0.467 0.17 0.206 1.417 0.277 0.689 0.78 0.551 2.038 0.17 0.17 2.301 
spoiling 1 
seq_id_string seq 
b1pa 1.6 2.2 2.9 0.7 0.4 1.3 0.3 2.3 0.6 0.2 0.9 0.1 1.1 1.1 1.3 2.6 0.4 2.8 3.9 0.7 1.8 0 1.4 0.6 0 0.7 0.3 1.6 3.6 0 
b1rms 1.6 2.2 2.9 0.7 0.4 1.3 0.3 2.3 0.6 0.2 0.9 0.1 1.1 1.1 1.3 2.6 0.4 2.8 3.9 0.7 1.8 0 1.4 0.6 0 0.7 0.3 1.6 3.6 0 
offsets_ppm 3.5 3.5 3.5 3.5 3.5 3.5 3.5 3.5 3.5 3.5 3.5 3.5 3.5 3.5 3.5 3.5 3.5 3.5 3.5 3.5 3.5 3.5 3.5 3.5 3.5 3.5 3.5 3.5 3.5 3.5 
gamma_hz 42.5763823 
freq 127.7292 
b0 3.00000124 

# Format of blocks:
#  #  D RF  GX  GY  GZ ADC EXT
[BLOCKS]
    1  0  1   0   0   0  0  0
    2  1  0   0   0   0  0  0
    3  0  2   0   0   0  0  0
    4  1  0   0   0   0  0  0
    5  0  3   0   0   0  0  0
    6  2  0   0   0   0  0  0
    7  0  4   0   0   0  0  0
    8  1  0   0   0   0  0  0
    9  0  5   0   0   0  0  0
   10  1  0   0   0   0  0  0
   11  0  6   0   0   0  0  0
   12  2  0   0   0   0  0  0
   13  0  7   0   0   0  0  0
   14  1  0   0   0   0  0  0
   15  0  8   0   0   0  0  0
   16  1  0   0   0   0  0  0
   17  0  9   0   0   0  0  0
   18  2  0   0   0   0  0  0
   19  0 10   0   0   0  0  0
   20  1  0   0   0   0  0  0
   21  0 11   0   0   0  0  0
   22  1  0   0   0   0  0  0
   23  0 12   0   0   0  0  0
   24  2  0   0   0   0  0  0
   25  0 13   0   0   0  0  0
   26  1  0   0   0   0  0  0
   27  0 14   0   0   0  0  0
   28  1  0   0   0   0  0  0
   29  0 15   0   0   0  0  0
   30  2  0   0   0   0  0  0
   31  0 16   0   0   0  0  0
   32  1  0   0   0   0  0  0
   33  0 17   0   0   0  0  0
   34  1  0   0   0   0  0  0
   35  0 18   0   0   0  0  0
   36  2  0   0   0   0  0  0
   37  0 19   0   0   0  0  0
   38  1  0   0   0   0  0  0
   39  0 20   0   0   0  0  0
   40  1  0   0   0   0  0  0
   41  0 21   0   0   0  0  0
   42  2  0   0   0   0  0  0
   43  0 22   0   0   0  0  0
   44  1  0   0   0   0  0  0
   45  0 23   0   0   0  0  0
   46  1  0   0   0   0  0  0
   47  0 24   0   0   0  0  0
   48  2  0   0   0   0  0  0
   49  0 25   0   0   0  0  0
   50  1  0   0   0   0  0  0
   51  0 26   0   0   0  0  0
   52  1  0   0   0   0  0  0
   53  0 27   0   0   0  0  0
   54  2  0   0   0   0  0  0
   55  0 28   0   0   0  0  0
   56  1  0   0   0   0  0  0
   57  0 29   0   0   0  0  0
   58  1  0   0   0   0  0  0
   59  0 30   0   0   0  0  0
   60  2  0   0   0   0  0  0
   61  0 31   0   0   0  0  0
   62  1  0   0   0   0  0  0
   63  0 32   0   0   0  0  0
   64  1  0   0   0   0  0  0
   65  0 33   0   0   0  0  0
   66  2  0   0   0   0  0  0
   67  0 34   0   0   0  0  0
   68  1  0   0   0   0  0  0
   69  0 35   0   0   0  0  0
   70  1  0   0   0   0  0  0
   71  0 36   0   0   0  0  0
   72  2  0   0   0   0  0  0
   73  0 37   0   0   0  0  0
   74  1  0   0   0   0  0  0
   75  0 38   0   0   0  0  0
   76  1  0   0   0   0  0  0
   77  0 39   0   0   0  0  0
   78  2  0   0   0   0  0  0
   79  0 40   0   0   0  0  0
   80  1  0   0   0   0  0  0
   81  0 41   0   0   0  0  0
   82  1  0   0   0   0  0  0
   83  0 42   0   0   0  0  0
   84  2  0   0   0   0  0  0
   85  0 43   0   0   0  0  0
   86  1  0   0   0   0  0  0
   87  0 44   0   0   0  0  0
   88  1  0   0   0   0  0  0
   89  0 45   0   0   0  0  0
   90  2  0   0   0   0  0  0
   91  0 46   0   0   0  0  0
   92  1  0   0   0   0  0  0
   93  0 47   0   0   0  0  0
   94  1  0   0   0   0  0  0
   95  0 48   0   0   0  0  0
   96  2  0   0   0   0  0  0
   97  0 49   0   0   0  0  0
   98  1  0   0   0   0  0  0
   99  0 50   0   0   0  0  0
  100  1  0   0   0   0  0  0
  101  0 51   0   0   0  0  0
  102  2  0   0   0   0  0  0
  103  0 52   0   0   0  0  0
  104  1  0   0   0   0  0  0
  105  0 53   0   0   0  0  0
  106  1  0   0   0   0  0  0
  107  0 54   0   0   0  0  0
  108  2  0   0   0   0  0  0
  109  0 55   0   0   0  0  0
  110  1  0   0   0   0  0  0
  111  0 56   0   0   0  0  0
  112  1  0   0   0   0  0  0
  113  0 57   0   0   0  0  0
  114  2  0   0   0   0  0  0
  115  0 58   0   0   0  0  0
  116  1  0   0   0   0  0  0
  117  0 59   0   0   0  0  0
  118  1  0   0   0   0  0  0
  119  0 60   0   0   0  0  0
  120  2  0   0   0   0  0  0
  121  0 61   0   0   0  0  0
  122  1  0   0   0   0  0  0
  123  0 62   0   0   0  0  0
  124  1  0   0   0   0  0  0
  125  0 63   0   0   0  0  0
  126  2  0   0   0   0  0  0
  127  0 64   0   0   0  0  0
  128  1  0   0   0   0  0  0
  129  0 65   0   0   0  0  0
  130  1  0   0   0   0  0  0
  131  0 66   0   0   0  0  0
  132  2  0   0   0   0  0  0
  133  0 67   0   0   0  0  0
  134  1  0   0   0   0  0  0
  135  0 68   0   0   0  0  0
  136  1  0   0   0   0  0  0
  137  0 69   0   0   0  0  0
  138  2  0   0   0   0  0  0
  139  0 70   0   0   0  0  0
  140  1  0   0   0   0  0  0
  141  0 71   0   0   0  0  0
  142  1  0   0   0   0  0  0
  143  0 72   0   0   0  0  0
  144  2  0   0   0   0  0  0
  145  0 73   0   0   0  0  0
  146  1  0   0   0   0  0  0
  147  0 74   0   0   0  0  0
  148  1  0   0   0   0  0  0
  149  0 75   0   0   0  0  0
  150  2  0   0   0   0  0  0
  151  0 76   0   0   0  0  0
  152  1  0   0   0   0  0  0
  153  0 77   0   0   0  0  0
  154  1  0   0   0   0  0  0
  155  0 78   0   0   0  0  0
  156  2  0   0   0   0  0  0
  157  0 79   0   0   0  0  0
  158  1  0   0   0   0  0  0
  159  0 80   0   0   0  0  0
  160  1  0   0   0   0  0  0
  161  0 81   0   0   0  0  0
  162  2  0   0   0   0  0  0
  163  0 82   0   0   0  0  0
  164  1  0   0   0   0  0  0
  165  0 83   0   0   0  0  0
  166  1  0   0   0   0  0  0
  167  0 84   0   0   0  0  0
  168  2  0   0   0   0  0  0
  169  0 85   0   0   0  0  0
  170  1  0   0   0   0  0  0
  171  0 86   0   0   0  0  0
  172  1  0   0   0   0  0  0
  173  0 87   0   0   0  0  0
  174  2  0   0   0   0  0  0
  175  0 88   0   0   0  0  0
  176  1  0   0   0   0  0  0
  177  0 89   0   0   0  0  0
  178  1  0   0   0   0  0  0
  179  0 90   0   0   0  0  0
  180  2  0   0   0   0  0  0
  181  0 91   0   0   0  0  0
  182  1  0   0   0   0  0  0
  183  0 92   0   0   0  0  0
  184  1  0   0   0   0  0  0
  185  0 93   0   0   0  0  0
  186  2  0   0   0   0  0  0
  187  0 94   0   0   0  0  0
  188  1  0   0   0   0  0  0
  189  0 95   0   0   0  0  0
  190  1  0   0   0   0  0  0
  191  0 96   0   0   0  0  0
  192  2  0   0   0   0  0  0
  193  0 97   0   0   0  0  0
  194  1  0   0   0   0  0  0
  195  0 98   0   0   0  0  0
  196  1  0   0   0   0  0  0
  197  0 99   0   0   0  0  0
  198  2  0   0   0   0  0  0
  199  0 100   0   0   0  0  0
  200  1  0   0   0   0  0  0
  201  0 101   0   0   0  0  0
  202  1  0   0   0   0  0  0
  203  0 102   0   0   0  0  0
  204  2  0   0   0   0  0  0
  205  0 103   0   0   0  0  0
  206  1  0   0   0   0  0  0
  207  0 104   0   0   0  0  0
  208  1  0   0   0   0  0  0
  209  0 105   0   0   0  0  0
  210  2  0   0   0   0  0  0
  211  0 106   0   0   0  0  0
  212  1  0   0   0   0  0  0
  213  0 107   0   0   0  0  0
  214  1  0   0   0   0  0  0
  215  0 108   0   0   0  0  0
  216  2  0   0   0   0  0  0
  217  0 109   0   0   0  0  0
  218  1  0   0   0   0  0  0
  219  0 110   0   0   0  0  0
  220  1  0   0   0   0  0  0
  221  0 111   0   0   0  0  0
  222  2  0   0   0   0  0  0
  223  0 112   0   0   0  0  0
  224  1  0   0   0   0  0  0
  225  0 113   0   0   0  0  0
  226  1  0   0   0   0  0  0
  227  0 114   0   0   0  0  0
  228  2  0   0   0   0  0  0
  229  0 115   0   0   0  0  0
  230  1  0   0   0   0  0  0
  231  0 116   0   0   0  0  0
  232  1  0   0   0   0  0  0
  233  0 117   0   0   0  0  0
  234  2  0   0   0   0  0  0
  235  0 118   0   0   0  0  0
  236  1  0   0   0   0  0  0
  237  0 119   0   0   0  0  0
  238  1  0   0   0   0  0  0
  239  0 120   0   0   0  0  0
  240  2  0   0   0   0  0  0
  241  0 121   0   0   0  0  0
  242  1  0   0   0   0  0  0
  243  0 122   0   0   0  0  0
  244  1  0   0   0   0  0  0
  245  0 123   0   0   0  0  0
  246  2  0   0   0   0  0  0
  247  0 124   0   0   0  0  0
  248  1  0   0   0   0  0  0
  249  0 125   0   0   0  0  0
  250  1  0   0   0   0  0  0
  251  0 126   0   0   0  0  0
  252  2  0   0   0   0  0  0
  253  0 127   0   0   0  0  0
  254  1  0   0   0   0  0  0
  255  0 128   0   0   0  0  0
  256  1  0   0   0   0  0  0
  257  0 129   0   0   0  0  0
  258  2  0   0   0   0  0  0
  259  0 130   0   0   0  0  0
  260  1  0   0   0   0  0  0
  261  0 131   0   0   0  0  0
  262  1  0   0   0   0  0  0
  263  0 132   0   0   0  0  0
  264  2  0   0   0   0  0  0
  265  0 133   0   0   0  0  0
  266  1  0   0   0   0  0  0
  267  0 134   0   0   0  0  0
  268  1  0   0   0   0  0  0
  269  0 135   0   0   0  0  0
  270  2  0   0   0   0  0  0
  271  0 136   0   0   0  0  0
  272  1  0   0   0   0  0  0
  273  0 137   0   0   0  0  0
  274  1  0   0   0   0  0  0
  275  0 138   0   0   0  0  0
  276  2  0   0   0   0  0  0
  277  0 139   0   0   0  0  0
  278  1  0   0   0   0  0  0
  279  0 140   0   0   0  0  0
  280  1  0   0   0   0  0  0
  281  0 141   0   0   0  0  0
  282  2  0   0   0   0  0  0
  283  0 142   0   0   0  0  0
  284  1  0   0   0   0  0  0
  285  0 143   0   0   0  0  0
  286  1  0   0   0   0  0  0
  287  0 144   0   0   0  0  0
  288  2  0   0   0   0  0  0
  289  0 145   0   0   0  0  0
  290  1  0   0   0   0  0  0
  291  0 146   0   0   0  0  0
  292  1  0   0   0   0  0  0
  293  0 147   0   0   0  0  0
[RF]
1       24.067 1 2 100 0 -0.698132
2          1.6 3 4 100 447.052 0.872665
3       24.067 1 2 100 0 3.40375
4       24.067 1 2 100 0 0.174533
5          1.6 3 4 100 447.052 1.74533
6       24.067 1 2 100 0 4.27642
7       24.067 1 2 100 0 1.0472
8          1.6 3 4 100 447.052 2.61799
9       24.067 1 2 100 0 5.14908
10       24.067 1 2 100 0 1.91986
11          1.6 3 4 100 447.052 3.49066
12       24.067 1 2 100 0 6.02175
13       24.067 1 2 100 0 2.79253
14          1.6 3 4 100 447.052 4.36332
15       24.067 1 2 100 0 6.89441
16       24.067 1 2 100 0 3.66519
17          1.6 3 4 100 447.052 5.23599
18       24.067 1 2 100 0 7.76708
19       24.067 1 2 100 0 4.53786
20          1.6 3 4 100 447.052 6.10865
21       24.067 1 2 100 0 8.63974
22       24.067 1 2 100 0 5.41052
23          1.6 3 4 100 447.052 6.98132
24       24.067 1 2 100 0 9.51241
25       24.067 1 2 100 0 6.28319
26          1.6 3 4 100 447.052 7.85398
27       24.067 1 2 100 0 10.3851
28       24.067 1 2 100 0 7.15585
29          1.6 3 4 100 447.052 8.72665
30       24.067 1 2 100 0 11.2577
31       24.067 1 2 100 0 8.02851
32          1.6 3 4 100 447.052 9.59931
33       24.067 1 2 100 0 12.1304
34       24.067 1 2 100 0 8.90118
35          1.6 3 4 100 447.052 10.472
36       24.067 1 2 100 0 13.0031
37       24.067 1 2 100 0 9.77384
38          1.6 3 4 100 447.052 11.3446
39       24.067 1 2 100 0 13.8757
40       24.067 1 2 100 0 10.6465
41          1.6 3 4 100 447.052 12.2173
42       24.067 1 2 100 0 14.7484
43       24.067 1 2 100 0 11.5192
44          1.6 3 4 100 447.052 13.09
45       24.067 1 2 100 0 15.6211
46       24.067 1 2 100 0 12.3918
47          1.6 3 4 100 447.052 13.9626
48       24.067 1 2 100 0 16.4937
49       24.067 1 2 100 0 13.2645
50          1.6 3 4 100 447.052 14.8353
51       24.067 1 2 100 0 17.3664
52       24.067 1 2 100 0 14.1372
53          1.6 3 4 100 447.052 15.708
54       24.067 1 2 100 0 18.2391
55       24.067 1 2 100 0 15.0098
56          1.6 3 4 100 447.052 16.5806
57       24.067 1 2 100 0 19.1117
58       24.067 1 2 100 0 15.8825
59          1.6 3 4 100 447.052 17.4533
60       24.067 1 2 100 0 19.9844
61       24.067 1 2 100 0 16.7552
62          1.6 3 4 100 447.052 18.326
63       24.067 1 2 100 0 20.857
64       24.067 1 2 100 0 17.6278
65          1.6 3 4 100 447.052 19.1986
66       24.067 1 2 100 0 21.7297
67       24.067 1 2 100 0 18.5005
68          1.6 3 4 100 447.052 20.0713
69       24.067 1 2 100 0 22.6024
70       24.067 1 2 100 0 19.3732
71          1.6 3 4 100 447.052 20.944
72       24.067 1 2 100 0 23.475
73       24.067 1 2 100 0 20.2458
74          1.6 3 4 100 447.052 21.8166
75       24.067 1 2 100 0 24.3477
76       24.067 1 2 100 0 21.1185
77          1.6 3 4 100 447.052 22.6893
78       24.067 1 2 100 0 25.2204
79       24.067 1 2 100 0 21.9911
80          1.6 3 4 100 447.052 23.5619
81       24.067 1 2 100 0 26.093
82       24.067 1 2 100 0 22.8638
83          1.6 3 4 100 447.052 24.4346
84       24.067 1 2 100 0 26.9657
85       24.067 1 2 100 0 23.7365
86          1.6 3 4 100 447.052 25.3073
87       24.067 1 2 100 0 27.8384
88       24.067 1 2 100 0 24.6091
89          1.6 3 4 100 447.052 26.1799
90       24.067 1 2 100 0 28.711
91       24.067 1 2 100 0 25.4818
92          1.6 3 4 100 447.052 27.0526
93       24.067 1 2 100 0 29.5837
94       24.067 1 2 100 0 26.3545
95          1.6 3 4 100 447.052 27.9253
96       24.067 1 2 100 0 30.4564
97       24.067 1 2 100 0 27.2271
98          1.6 3 4 100 447.052 28.7979
99       24.067 1 2 100 0 31.329
100       24.067 1 2 100 0 28.0998
101          1.6 3 4 100 447.052 29.6706
102       24.067 1 2 100 0 32.2017
103       24.067 1 2 100 0 28.9725
104          1.6 3 4 100 447.052 30.5433
105       24.067 1 2 100 0 33.0744
106       24.067 1 2 100 0 29.8451
107          1.6 3 4 100 447.052 31.4159
108       24.067 1 2 100 0 33.947
109       24.067 1 2 100 0 30.7178
110          1.6 3 4 100 447.052 32.2886
111       24.067 1 2 100 0 34.8197
112       24.067 1 2 100 0 31.5905
113          1.6 3 4 100 447.052 33.1613
114       24.067 1 2 100 0 35.6923
115       24.067 1 2 100 0 32.4631
116          1.6 3 4 100 447.052 34.0339
117       24.067 1 2 100 0 36.565
118       24.067 1 2 100 0 33.3358
119          1.6 3 4 100 447.052 34.9066
120       24.067 1 2 100 0 37.4377
121       24.067 1 2 100 0 34.2085
122          1.6 3 4 100 447.052 35.7792
123       24.067 1 2 100 0 38.3103
124       24.067 1 2 100 0 35.0811
125          1.6 3 4 100 447.052 36.6519
126       24.067 1 2 100 0 39.183
127       24.067 1 2 100 0 35.9538
128          1.6 3 4 100 447.052 37.5246
129       24.067 1 2 100 0 40.0557
130       24.067 1 2 100 0 36.8264
131          1.6 3 4 100 447.052 38.3972
132       24.067 1 2 100 0 40.9283
133       24.067 1 2 100 0 37.6991
134          1.6 3 4 100 447.052 39.2699
135       24.067 1 2 100 0 41.801
136       24.067 1 2 100 0 38.5718
137          1.6 3 4 100 447.052 40.1426
138       24.067 1 2 100 0 42.6737
139       24.067 1 2 100 0 39.4444
140          1.6 3 4 100 447.052 41.0152
141       24.067 1 2 100 0 43.5463
142       24.067 1 2 100 0 40.3171
143          1.6 3 4 100 447.052 41.8879
144       24.067 1 2 100 0 44.419
145       24.067 1 2 100 0 41.1898
146          1.6 3 4 100 447.052 42.7606
147       24.067 1 2 100 0 45.2917
148       24.067 1 2 100 0 42.0624
149          1.6 3 4 100 447.052 43.6332
150       24.067 1 2 100 0 46.1643
151       24.067 1 2 100 0 42.9351
152          1.6 3 4 100 447.052 44.5059
153       24.067 1 2 100 0 47.037
154       24.067 1 2 100 0 43.8078
155          1.6 3 4 100 447.052 45.3786
156       24.067 1 2 100 0 47.9096
157       24.067 1 2 100 0 44.6804
158          1.6 3 4 100 447.052 46.2512
159       24.067 1 2 100 0 48.7823
160       24.067 1 2 100 0 45.5531
161          1.6 3 4 100 447.052 47.1239
162       24.067 1 2 100 0 49.655
163       24.067 1 2 100 0 46.4258
164          1.6 3 4 100 447.052 47.9966
165       24.067 1 2 100 0 50.5276
166       24.067 1 2 100 0 47.2984
167          1.6 3 4 100 447.052 48.8692
168       24.067 1 2 100 0 51.4003
169       24.067 1 2 100 0 48.1711
170          1.6 3 4 100 447.052 49.7419
171       24.067 1 2 100 0 52.273
172       24.067 1 2 100 0 49.0438
173          1.6 3 4 100 447.052 50.6145
174       24.067 1 2 100 0 53.1456
175       24.067 1 2 100 0 49.9164
176          1.6 3 4 100 447.052 51.4872
177       24.067 1 2 100 0 54.0183
178       24.067 1 2 100 0 50.7891
179          1.6 3 4 100 447.052 52.3599
180       24.067 1 2 100 0 54.891
181       24.067 1 2 100 0 51.6617
182          1.6 3 4 100 447.052 53.2325
183       24.067 1 2 100 0 55.7636
184       24.067 1 2 100 0 52.5344
185          1.6 3 4 100 447.052 54.1052
186       24.067 1 2 100 0 56.6363
187       24.067 1 2 100 0 53.4071
188          1.6 3 4 100 447.052 54.9779
189       24.067 1 2 100 0 57.509
190       24.067 1 2 100 0 54.2797
191          1.6 3 4 100 447.052 55.8505
192       24.067 1 2 100 0 58.3816
193       24.067 1 2 100 0 55.1524
194          1.6 3 4 100 447.052 56.7232
195       24.067 1 2 100 0 59.2543
196       24.067 1 2 100 0 56.0251
197          1.6 3 4 100 447.052 57.5959
198       24.067 1 2 100 0 60.127
199       24.067 1 2 100 0 56.8977
200          1.6 3 4 100 447.052 58.4685
201       24.067 1 2 100 0 60.9996
202       24.067 1 2 100 0 57.7704
203          1.6 3 4 100 447.052 59.3412
204       24.067 1 2 100 0 61.8723
205       24.067 1 2 100 0 58.6431
206          1.6 3 4 100 447.052 60.2139
207       24.067 1 2 100 0 62.7449
208       24.067 1 2 100 0 59.5157
209          1.6 3 4 100 447.052 61.0865
210       24.067 1 2 100 0 63.6176
211       24.067 1 2 100 0 60.3884
212          1.6 3 4 100 447.052 61.9592
213       24.067 1 2 100 0 64.4903
214       24.067 1 2 100 0 61.2611
215          1.6 3 4 100 447.052 62.8319
216       24.067 1 2 100 0 65.3629
217       24.067 1 2 100 0 62.1337
218          1.6 3 4 100 447.052 63.7045
219       24.067 1 2 100 0 66.2356
220       24.067 1 2 100 0 63.0064
221          1.6 3 4 100 447.052 64.5772
222       24.067 1 2 100 0 67.1083
223       24.067 1 2 100 0 63.8791
224          1.6 3 4 100 447.052 65.4498
225       24.067 1 2 100 0 67.9809
226       24.067 1 2 100 0 64.7517
227          1.6 3 4 100 447.052 66.3225
228       24.067 1 2 100 0 68.8536
229       24.067 1 2 100 0 65.6244
230          1.6 3 4 100 447.052 67.1952
231       24.067 1 2 100 0 69.7263
232       24.067 1 2 100 0 66.497
233          1.6 3 4 100 447.052 68.0678
234       24.067 1 2 100 0 70.5989
235       24.067 1 2 100 0 67.3697
236          1.6 3 4 100 447.052 68.9405
237       24.067 1 2 100 0 71.4716
238       24.067 1 2 100 0 68.2424
239          1.6 3 4 100 447.052 69.8132
240       24.067 1 2 100 0 72.3443
241       24.067 1 2 100 0 69.115
242          1.6 3 4 100 447.052 70.6858
243       24.067 1 2 100 0 73.2169
244       24.067 1 2 100 0 69.9877
245          1.6 3 4 100 447.052 71.5585
246       24.067 1 2 100 0 74.0896
247       24.067 1 2 100 0 70.8604
248          1.6 3 4 100 447.052 72.4312
249       24.067 1 2 100 0 74.9623
250       24.067 1 2 100 0 71.733
251          1.6 3 4 100 447.052 73.3038
252       24.067 1 2 100 0 75.8349
253       24.067 1 2 100 0 72.6057
254          1.6 3 4 100 447.052 74.1765
255       24.067 1 2 100 0 76.7076
256       24.067 1 2 100 0 73.4784
257          1.6 3 4 100 447.052 75.0492
258       24.067 1 2 100 0 77.5802
259       24.067 1 2 100 0 74.351
260          1.6 3 4 100 447.052 75.9218
261       24.067 1 2 100 0 78.4529
262       24.067 1 2 100 0 75.2237
263          1.6 3 4 100 447.052 76.7945
264       24.067 1 2 100 0 79.3256
265       24.067 1 2 100 0 76.0964
266          1.6 3 4 100 447.052 77.6672
267       24.067 1 2 100 0 80.1982
268       24.067 1 2 100 0 76.969
269          1.6 3 4 100 447.052 78.5398
270       24.067 1 2 100 0 81.0709
271       24.067 1 2 100 0 77.8417
272          1.6 3 4 100 447.052 79.4125
273       24.067 1 2 100 0 81.9436
274       24.067 1 2 100 0 78.7143
275          1.6 3 4 100 447.052 80.2851
276       24.067 1 2 100 0 82.8162
277       24.067 1 2 100 0 79.587
278          1.6 3 4 100 447.052 81.1578
279       24.067 1 2 100 0 83.6889
280       24.067 1 2 100 0 80.4597
281          1.6 3 4 100 447.052 82.0305
282       24.067 1 2 100 0 84.5616
283       24.067 1 2 100 0 81.3323
284          1.6 3 4 100 447.052 82.9031
285       24.067 1 2 100 0 85.4342
286       24.067 1 2 100 0 82.205
287          1.6 3 4 100 447.052 83.7758
288       24.067 1 2 100 0 86.3069
289       24.067 1 2 100 0 83.0777
290          1.6 3 4 100 447.052 84.6485
291       24.067 1 2 100 0 87.1796
292       24.067 1 2 100 0 83.9503
293          1.6 3 4 100 447.052 85.5211
294       24.067 1 2 100 0 88.0522
295       24.067 1 2 100 0 84.823
296          1.6 3 4 100 447.052 86.3938
297       24.067 1 2 100 0 88.9249
298       24.067 1 2 100 0 85.6957
299          1.6 3 4 100 447.052 87.2665
300       24.067 1 2 100 0 89.7976
301       24.067 1 2 100 0 86.5683
302          1.6 3 4 100 447.052 88.1391
303       24.067 1 2 100 0 90.6702
304       24.067 1 2 100 0 87.441
305          1.6 3 4 100 447.052 89.0118
306       24.067 1 2 100 0 91.5429
307       24.067 1 2 100 0 88.3137
308          1.6 3 4 100 447.052 89.8845
309       24.067 1 2 100 0 92.4155
310       24.067 1 2 100 0 89.1863
311          1.6 3 4 100 447.052 90.7571
312       24.067 1 2 100 0 93.2882
313       24.067 1 2 100 0 90.059
314          1.6 3 4 100 447.052 91.6298
315       24.067 1 2 100 0 94.1609
316       24.067 1 2 100 0 90.9317
317          1.6 3 4 100 447.052 92.5025
318       24.067 1 2 100 0 95.0335
319       24.067 1 2 100 0 91.8043
320          1.6 3 4 100 447.052 93.3751
321       24.067 1 2 100 0 95.9062
322       24.067 1 2 100 0 92.677
323          1.6 3 4 100 447.052 94.2478
324       24.067 1 2 100 0 96.7789
325       24.067 1 2 100 0 93.5496
326          1.6 3 4 100 447.052 95.1204
327       24.067 1 2 100 0 97.6515
328       24.067 1 2 100 0 94.4223
329          1.6 3 4 100 447.052 95.9931
330       24.067 1 2 100 0 98.5242
331       24.067 1 2 100 0 95.295
332          1.6 3 4 100 447.052 96.8658
333       24.067 1 2 100 0 99.3969
334       24.067 1 2 100 0 96.1676
335          1.6 3 4 100 447.052 97.7384
336       24.067 1 2 100 0 100.27
337       24.067 1 2 100 0 97.0403
338          1.6 3 4 100 447.052 98.6111
339       24.067 1 2 100 0 101.142
340       24.067 1 2 100 0 97.913
341          1.6 3 4 100 447.052 99.4838
342       24.067 1 2 100 0 102.015
343       24.067 1 2 100 0 98.7856
344          1.6 3 4 100 447.052 100.356
345       24.067 1 2 100 0 102.888
346       24.067 1 2 100 0 99.6583
347          1.6 3 4 100 447.052 101.229
348       24.067 1 2 100 0 103.76
349       24.067 1 2 100 0 100.531
350          1.6 3 4 100 447.052 102.102
351       24.067 1 2 100 0 104.633
352       24.067 1 2 100 0 101.404
353          1.6 3 4 100 447.052 102.974
354       24.067 1 2 100 0 105.506
355       24.067 1 2 100 0 102.276
356          1.6 3 4 100 447.052 103.847
357       24.067 1 2 100 0 106.378
358       24.067 1 2 100 0 103.149
359          1.6 3 4 100 447.052 104.72
360       24.067 1 2 100 0 107.251
361       24.067 1 2 100 0 104.022
362          1.6 3 4 100 447.052 105.592
363       24.067 1 2 100 0 108.124
364       24.067 1 2 100 0 104.894
365          1.6 3 4 100 447.052 106.465
366       24.067 1 2 100 0 108.996
367       24.067 1 2 100 0 105.767
368          1.6 3 4 100 447.052 107.338
369       24.067 1 2 100 0 109.869
370       24.067 1 2 100 0 106.64
371          1.6 3 4 100 447.052 108.21
372       24.067 1 2 100 0 110.742
373       24.067 1 2 100 0 107.512
374          1.6 3 4 100 447.052 109.083
375       24.067 1 2 100 0 111.614
376       24.067 1 2 100 0 108.385
377          1.6 3 4 100 447.052 109.956
378       24.067 1 2 100 0 112.487
379       24.067 1 2 100 0 109.258
380          1.6 3 4 100 447.052 110.828
381       24.067 1 2 100 0 113.359
382       24.067 1 2 100 0 110.13
383          1.6 3 4 100 447.052 111.701
384       24.067 1 2 100 0 114.232
385       24.067 1 2 100 0 111.003
386          1.6 3 4 100 447.052 112.574
387       24.067 1 2 100 0 115.105
388       24.067 1 2 100 0 111.876
389          1.6 3 4 100 447.052 113.446
390       24.067 1 2 100 0 115.977
391       24.067 1 2 100 0 112.748
392          1.6 3 4 100 447.052 114.319
393       24.067 1 2 100 0 116.85
394       24.067 1 2 100 0 113.621
395          1.6 3 4 100 447.052 115.192
396       24.067 1 2 100 0 117.723
397       24.067 1 2 100 0 114.494
398          1.6 3 4 100 447.052 116.064
399       24.067 1 2 100 0 118.595
400       24.067 1 2 100 0 115.366
401          1.6 3 4 100 447.052 116.937
402       24.067 1 2 100 0 119.468
403       24.067 1 2 100 0 116.239
404          1.6 3 4 100 447.052 117.81
405       24.067 1 2 100 0 120.341
406       24.067 1 2 100 0 117.112
407          1.6 3 4 100 447.052 118.682
408       24.067 1 2 100 0 121.213
409       24.067 1 2 100 0 117.984
410          1.6 3 4 100 447.052 119.555
411       24.067 1 2 100 0 122.086
412       24.067 1 2 100 0 118.857
413          1.6 3 4 100 447.052 120.428
414       24.067 1 2 100 0 122.959
415       24.067 1 2 100 0 119.73
416          1.6 3 4 100 447.052 121.3
417       24.067 1 2 100 0 123.831
418       24.067 1 2 100 0 120.602
419          1.6 3 4 100 447.052 122.173
420       24.067 1 2 100 0 124.704
421      32.8712 1 2 100 0 -0.698132
422          2.2 3 4 100 447.052 0.872665
423      32.8712 1 2 100 0 3.40375
424      32.8712 1 2 100 0 0.174533
425          2.2 3 4 100 447.052 1.74533
426      32.8712 1 2 100 0 4.27642
427      32.8712 1 2 100 0 1.0472
428          2.2 3 4 100 447.052 2.61799
429      32.8712 1 2 100 0 5.14908
430      32.8712 1 2 100 0 1.91986
431          2.2 3 4 100 447.052 3.49066
432      32.8712 1 2 100 0 6.02175
433      32.8712 1 2 100 0 2.79253
434          2.2 3 4 100 447.052 4.36332
435      32.8712 1 2 100 0 6.89441
436      32.8712 1 2 100 0 3.66519
437          2.2 3 4 100 447.052 5.23599
438      32.8712 1 2 100 0 7.76708
439      32.8712 1 2 100 0 4.53786
440          2.2 3 4 100 447.052 6.10865
441      32.8712 1 2 100 0 8.63974
442      32.8712 1 2 100 0 5.41052
443          2.2 3 4 100 447.052 6.98132
444      32.8712 1 2 100 0 9.51241
445      32.8712 1 2 100 0 6.28319
446          2.2 3 4 100 447.052 7.85398
447      32.8712 1 2 100 0 10.3851
448      32.8712 1 2 100 0 7.15585
449          2.2 3 4 100 447.052 8.72665
450      32.8712 1 2 100 0 11.2577
451      32.8712 1 2 100 0 8.02851
452          2.2 3 4 100 447.052 9.59931
453      32.8712 1 2 100 0 12.1304
454      32.8712 1 2 100 0 8.90118
455          2.2 3 4 100 447.052 10.472
456      32.8712 1 2 100 0 13.0031
457      32.8712 1 2 100 0 9.77384
458          2.2 3 4 100 447.052 11.3446
459      32.8712 1 2 100 0 13.8757
460      32.8712 1 2 100 0 10.6465
461          2.2 3 4 100 447.052 12.2173
462      32.8712 1 2 100 0 14.7484
463      32.8712 1 2 100 0 11.5192
464          2.2 3 4 100 447.052 13.09
465      32.8712 1 2 100 0 15.6211
466      32.8712 1 2 100 0 12.3918
467          2.2 3 4 100 447.052 13.9626
468      32.8712 1 2 100 0 16.4937
469      32.8712 1 2 100 0 13.2645
470          2.2 3 4 100 447.052 14.8353
471      32.8712 1 2 100 0 17.3664
472      32.8712 1 2 100 0 14.1372
473          2.2 3 4 100 447.052 15.708
474      32.8712 1 2 100 0 18.2391
475      32.8712 1 2 100 0 15.0098
476          2.2 3 4 100 447.052 16.5806
477      32.8712 1 2 100 0 19.1117
478      32.8712 1 2 100 0 15.8825
479          2.2 3 4 100 447.052 17.4533
480      32.8712 1 2 100 0 19.9844
481      32.8712 1 2 100 0 16.7552
482          2.2 3 4 100 447.052 18.326
483      32.8712 1 2 100 0 20.857
484      32.8712 1 2 100 0 17.6278
485          2.2 3 4 100 447.052 19.1986
486      32.8712 1 2 100 0 21.7297
487      32.8712 1 2 100 0 18.5005
488          2.2 3 4 100 447.052 20.0713
489      32.8712 1 2 100 0 22.6024
490      32.8712 1 2 100 0 19.3732
491          2.2 3 4 100 447.052 20.944
492      32.8712 1 2 100 0 23.475
493      32.8712 1 2 100 0 20.2458
494          2.2 3 4 100 447.052 21.8166
495      32.8712 1 2 100 0 24.3477
496      32.8712 1 2 100 0 21.1185
497          2.2 3 4 100 447.052 22.6893
498      32.8712 1 2 100 0 25.2204
499      32.8712 1 2 100 0 21.9911
500          2.2 3 4 100 447.052 23.5619
501      32.8712 1 2 100 0 26.093
502      32.8712 1 2 100 0 22.8638
503          2.2 3 4 100 447.052 24.4346
504      32.8712 1 2 100 0 26.9657
505      32.8712 1 2 100 0 23.7365
506          2.2 3 4 100 447.052 25.3073
507      32.8712 1 2 100 0 27.8384
508      32.8712 1 2 100 0 24.6091
509          2.2 3 4 100 447.052 26.1799
510      32.8712 1 2 100 0 28.711
511      32.8712 1 2 100 0 25.4818
512          2.2 3 4 100 447.052 27.0526
513      32.8712 1 2 100 0 29.5837
514      32.8712 1 2 100 0 26.3545
515          2.2 3 4 100 447.052 27.9253
516      32.8712 1 2 100 0 30.4564
517      32.8712 1 2 100 0 27.2271
518          2.2 3 4 100 447.052 28.7979
519      32.8712 1 2 100 0 31.329
520      32.8712 1 2 100 0 28.0998
521          2.2 3 4 100 447.052 29.6706
522      32.8712 1 2 100 0 32.2017
523      32.8712 1 2 100 0 28.9725
524          2.2 3 4 100 447.052 30.5433
525      32.8712 1 2 100 0 33.0744
526      32.8712 1 2 100 0 29.8451
527          2.2 3 4 100 447.052 31.4159
528      32.8712 1 2 100 0 33.947
529      32.8712 1 2 100 0 30.7178
530          2.2 3 4 100 447.052 32.2886
531      32.8712 1 2 100 0 34.8197
532      32.8712 1 2 100 0 31.5905
533          2.2 3 4 100 447.052 33.1613
534      32.8712 1 2 100 0 35.6923
535      32.8712 1 2 100 0 32.4631
536          2.2 3 4 100 447.052 34.0339
537      32.8712 1 2 100 0 36.565
538      32.8712 1 2 100 0 33.3358
539          2.2 3 4 100 447.052 34.9066
540      32.8712 1 2 100 0 37.4377
541      32.8712 1 2 100 0 34.2085
542          2.2 3 4 100 447.052 35.7792
543      32.8712 1 2 100 0 38.3103
544      32.8712 1 2 100 0 35.0811
