# Pulseq sequence file
# Created by PyPulseq

[VERSION]
major 1
minor 3
revision 1post1

[DEFINITIONS]
n_pulses 13 
num_meas 30 
tp 0.1 
td 0.1 
offsets_ppm 3 3 3 3 3 3 3 3 3 3 3 3 3 3 3 3 3 3 3 3 3 3 3 3 3 3 3 3 3 3 
dcsat 0.5 
tsat 2.5 2.5 2.5 2.5 2.5 2.5 2.5 2.5 2.5 2.5 2.5 2.5 2.5 2.5 2.5 2.5 2.5 2.5 2.5 2.5 2.5 2.5 2.5 2.5 2.5 2.5 2.5 2.5 2.5 2.5 
trec 1 1 1 1 1 1 1 1 1 1 1 1 1 1 1 1 1 1 1 1 1 1 1 1 1 1 1 1 1 1 
spoiling 1 
b1 5 5 3 3.75 2.5 1.75 5.5 6 3.75 5.75 0.25 3 6 4.5 3.75 3.5 3.5 0 3.75 6 3.75 4.75 4.5 4.25 3.25 5.25 5.25 0.25 4.5 5.25 
seq_id_string seq 
freq 127.7292 
gamma_hz 42.5763823 
b0 3.00000124 

# Format of blocks:
#  #  D RF  GX  GY  GZ ADC EXT
[BLOCKS]
   1  0  1   0   0   0  0  0
   2  1  0   0   0   0  0  0
   3  0  2   0   0   0  0  0
   4  1  0   0   0   0  0  0
   5  0  3   0   0   0  0  0
   6  2  0   0   0   0  0  0
   7  0  4   0   0   0  0  0
   8  1  0   0   0   0  0  0
   9  0  5   0   0   0  0  0
  10  1  0   0   0   0  0  0
  11  0  6   0   0   0  0  0
  12  2  0   0   0   0  0  0
  13  0  7   0   0   0  0  0
  14  1  0   0   0   0  0  0
  15  0  8   0   0   0  0  0
  16  1  0   0   0   0  0  0
  17  0  9   0   0   0  0  0
  18  2  0   0   0   0  0  0
  19  0 10   0   0   0  0  0
  20  1  0   0   0   0  0  0
  21  0 11   0   0   0  0  0
  22  1  0   0   0   0  0  0
  23  0 12   0   0   0  0  0
  24  2  0   0   0   0  0  0
  25  0 13   0   0   0  0  0
  26  1  0   0   0   0  0  0
  27  0 14   0   0   0  0  0
  28  1  0   0   0   0  0  0
  29  0 15   0   0   0  0  0
  30  2  0   0   0   0  0  0
  31  0 16   0   0   0  0  0
  32  1  0   0   0   0  0  0
  33  0 17   0   0   0  0  0
  34  1  0   0   0   0  0  0
  35  0 18   0   0   0  0  0
  36  2  0   0   0   0  0  0
  37  0 19   0   0   0  0  0
  38  1  0   0   0   0  0  0
  39  0 20   0   0   0  0  0
  40  1  0   0   0   0  0  0
  41  0 21   0   0   0  0  0
  42  2  0   0   0   0  0  0
  43  0 22   0   0   0  0  0
  44  1  0   0   0   0  0  0
  45  0 23   0   0   0  0  0
  46  1  0   0   0   0  0  0
  47  0 24   0   0   0  0  0
  48  2  0   0   0   0  0  0
  49  0 25   0   0   0  0  0
  50  1  0   0   0   0  0  0
  51  0 26   0   0   0  0  0
  52  1  0   0   0   0  0  0
  53  0 27   0   0   0  0  0
  54  2  0   0   0   0  0  0
  55  0 28   0   0   0  0  0
  56  1  0   0   0   0  0  0
  57  0 29   0   0   0  0  0
  58  1  0   0   0   0  0  0
  59  0 30   0   0   0  0  0
  60  2  0   0   0   0  0  0
  61  0 31   0   0   0  0  0
  62  1  0   0   0   0  0  0
  63  0 32   0   0   0  0  0
  64  1  0   0   0   0  0  0
  65  0 33   0   0   0  0  0
  66  2  0   0   0   0  0  0
  67  0 34   0   0   0  0  0
  68  1  0   0   0   0  0  0
  69  0 35   0   0   0  0  0
  70  1  0   0   0   0  0  0
  71  0 36   0   0   0  0  0
  72  2  0   0   0   0  0  0
  73  0 37   0   0   0  0  0
  74  1  0   0   0   0  0  0
  75  0 38   0   0   0  0  0
  76  1  0   0   0   0  0  0
  77  0 39   0   0   0  0  0
  78  3  0   0   0   0  0  0
  79  0  0   1   1   1  0  0
  80  3  0   0   0   0  0  0
  81  0  0   0   0   0  1  0
  82  4  0   0   0   0  0  0
  83  0  1   0   0   0  0  0
  84  1  0   0   0   0  0  0
  85  0  2   0   0   0  0  0
  86  1  0   0   0   0  0  0
  87  0  3   0   0   0  0  0
  88  2  0   0   0   0  0  0
  89  0  4   0   0   0  0  0
  90  1  0   0   0   0  0  0
  91  0  5   0   0   0  0  0
  92  1  0   0   0   0  0  0
  93  0  6   0   0   0  0  0
  94  2  0   0   0   0  0  0
  95  0  7   0   0   0  0  0
  96  1  0   0   0   0  0  0
  97  0  8   0   0   0  0  0
  98  1  0   0   0   0  0  0
  99  0  9   0   0   0  0  0
 100  2  0   0   0   0  0  0
 101  0 10   0   0   0  0  0
 102  1  0   0   0   0  0  0
 103  0 11   0   0   0  0  0
 104  1  0   0   0   0  0  0
 105  0 12   0   0   0  0  0
 106  2  0   0   0   0  0  0
 107  0 13   0   0   0  0  0
 108  1  0   0   0   0  0  0
 109  0 14   0   0   0  0  0
 110  1  0   0   0   0  0  0
 111  0 15   0   0   0  0  0
 112  2  0   0   0   0  0  0
 113  0 16   0   0   0  0  0
 114  1  0   0   0   0  0  0
 115  0 17   0   0   0  0  0
 116  1  0   0   0   0  0  0
 117  0 18   0   0   0  0  0
 118  2  0   0   0   0  0  0
 119  0 19   0   0   0  0  0
 120  1  0   0   0   0  0  0
 121  0 20   0   0   0  0  0
 122  1  0   0   0   0  0  0
 123  0 21   0   0   0  0  0
 124  2  0   0   0   0  0  0
 125  0 22   0   0   0  0  0
 126  1  0   0   0   0  0  0
 127  0 23   0   0   0  0  0
 128  1  0   0   0   0  0  0
 129  0 24   0   0   0  0  0
 130  2  0   0   0   0  0  0
 131  0 25   0   0   0  0  0
 132  1  0   0   0   0  0  0
 133  0 26   0   0   0  0  0
 134  1  0   0   0   0  0  0
 135  0 27   0   0   0  0  0
 136  2  0   0   0   0  0  0
 137  0 28   0   0   0  0  0
 138  1  0   0   0   0  0  0
 139  0 29   0   0   0  0  0
 140  1  0   0   0   0  0  0
 141  0 30   0   0   0  0  0
 142  2  0   0   0   0  0  0
 143  0 31   0   0   0  0  0
 144  1  0   0   0   0  0  0
 145  0 32   0   0   0  0  0
 146  1  0   0   0   0  0  0
 147  0 33   0   0   0  0  0
 148  2  0   0   0   0  0  0
 149  0 34   0   0   0  0  0
 150  1  0   0   0   0  0  0
 151  0 35   0   0   0  0  0
 152  1  0   0   0   0  0  0
 153  0 36   0   0   0  0  0
 154  2  0   0   0   0  0  0
 155  0 37   0   0   0  0  0
 156  1  0   0   0   0  0  0
 157  0 38   0   0   0  0  0
 158  1  0   0   0   0  0  0
 159  0 39   0   0   0  0  0
 160  3  0   0   0   0  0  0
 161  0  0   1   1   1  0  0
 162  3  0   0   0   0  0  0
 163  0  0   0   0   0  1  0
 164  4  0   0   0   0  0  0
 165  0 40   0   0   0  0  0
 166  1  0   0   0   0  0  0
 167  0 41   0   0   0  0  0
 168  1  0   0   0   0  0  0
 169  0 42   0   0   0  0  0
 170  2  0   0   0   0  0  0
 171  0 43   0   0   0  0  0
 172  1  0   0   0   0  0  0
 173  0 44   0   0   0  0  0
 174  1  0   0   0   0  0  0
 175  0 45   0   0   0  0  0
 176  2  0   0   0   0  0  0
 177  0 46   0   0   0  0  0
 178  1  0   0   0   0  0  0
 179  0 47   0   0   0  0  0
 180  1  0   0   0   0  0  0
 181  0 48   0   0   0  0  0
 182  2  0   0   0   0  0  0
 183  0 49   0   0   0  0  0
 184  1  0   0   0   0  0  0
 185  0 50   0   0   0  0  0
 186  1  0   0   0   0  0  0
 187  0 51   0   0   0  0  0
 188  2  0   0   0   0  0  0
 189  0 52   0   0   0  0  0
 190  1  0   0   0   0  0  0
 191  0 53   0   0   0  0  0
 192  1  0   0   0   0  0  0
 193  0 54   0   0   0  0  0
 194  2  0   0   0   0  0  0
 195  0 55   0   0   0  0  0
 196  1  0   0   0   0  0  0
 197  0 56   0   0   0  0  0
 198  1  0   0   0   0  0  0
 199  0 57   0   0   0  0  0
 200  2  0   0   0   0  0  0
 201  0 58   0   0   0  0  0
 202  1  0   0   0   0  0  0
 203  0 59   0   0   0  0  0
 204  1  0   0   0   0  0  0
 205  0 60   0   0   0  0  0
 206  2  0   0   0   0  0  0
 207  0 61   0   0   0  0  0
 208  1  0   0   0   0  0  0
 209  0 62   0   0   0  0  0
 210  1  0   0   0   0  0  0
 211  0 63   0   0   0  0  0
 212  2  0   0   0   0  0  0
 213  0 64   0   0   0  0  0
 214  1  0   0   0   0  0  0
 215  0 65   0   0   0  0  0
 216  1  0   0   0   0  0  0
 217  0 66   0   0   0  0  0
 218  2  0   0   0   0  0  0
 219  0 67   0   0   0  0  0
 220  1  0   0   0   0  0  0
 221  0 68   0   0   0  0  0
 222  1  0   0   0   0  0  0
 223  0 69   0   0   0  0  0
 224  2  0   0   0   0  0  0
 225  0 70   0   0   0  0  0
 226  1  0   0   0   0  0  0
 227  0 71   0   0   0  0  0
 228  1  0   0   0   0  0  0
 229  0 72   0   0   0  0  0
 230  2  0   0   0   0  0  0
 231  0 73   0   0   0  0  0
 232  1  0   0   0   0  0  0
 233  0 74   0   0   0  0  0
 234  1  0   0   0   0  0  0
 235  0 75   0   0   0  0  0
 236  2  0   0   0   0  0  0
 237  0 76   0   0   0  0  0
 238  1  0   0   0   0  0  0
 239  0 77   0   0   0  0  0
 240  1  0   0   0   0  0  0
 241  0 78   0   0   0  0  0
 242  3  0   0   0   0  0  0
 243  0  0   1   1   1  0  0
 244  3  0   0   0   0  0  0
 245  0  0   0   0   0  1  0
 246  4  0   0   0   0  0  0
 247  0 79   0   0   0  0  0
 248  1  0   0   0   0  0  0
 249  0 80   0   0   0  0  0
 250  1  0   0   0   0  0  0
 251  0 81   0   0   0  0  0
 252  2  0   0   0   0  0  0
 253  0 82   0   0   0  0  0
 254  1  0   0   0   0  0  0
 255  0 83   0   0   0  0  0
 256  1  0   0   0   0  0  0
 257  0 84   0   0   0  0  0
 258  2  0   0   0   0  0  0
 259  0 85   0   0   0  0  0
 260  1  0   0   0   0  0  0
 261  0 86   0   0   0  0  0
 262  1  0   0   0   0  0  0
 263  0 87   0   0   0  0  0
 264  2  0   0   0   0  0  0
 265  0 88   0   0   0  0  0
 266  1  0   0   0   0  0  0
 267  0 89   0   0   0  0  0
 268  1  0   0   0   0  0  0
 269  0 90   0   0   0  0  0
 270  2  0   0   0   0  0  0
 271  0 91   0   0   0  0  0
 272  1  0   0   0   0  0  0
 273  0 92   0   0   0  0  0
 274  1  0   0   0   0  0  0
 275  0 93   0   0   0  0  0
 276  2  0   0   0   0  0  0
 277  0 94   0   0   0  0  0
 278  1  0   0   0   0  0  0
 279  0 95   0   0   0  0  0
 280  1  0   0   0   0  0  0
 281  0 96   0   0   0  0  0
 282  2  0   0   0   0  0  0
 283  0 97   0   0   0  0  0
 284  1  0   0   0   0  0  0
 285  0 98   0   0   0  0  0
 286  1  0   0   0   0  0  0
 287  0 99   0   0   0  0  0
 288  2  0   0   0   0  0  0
 289  0 100   0   0   0  0  0
 290  1  0   0   0   0  0  0
 291  0 101   0   0   0  0  0
 292  1  0   0   0   0  0  0
 293  0 102   0   0   0  0  0
 294  2  0   0   0   0  0  0
 295  0 103   0   0   0  0  0
 296  1  0   0   0   0  0  0
 297  0 104   0   0   0  0  0
 298  1  0   0   0   0  0  0
 299  0 105   0   0   0  0  0
 300  2  0   0   0   0  0  0
 301  0 106   0   0   0  0  0
 302  1  0   0   0   0  0  0
 303  0 107   0   0   0  0  0
 304  1  0   0   0   0  0  0
 305  0 108   0   0   0  0  0
 306  2  0   0   0   0  0  0
 307  0 109   0   0   0  0  0
 308  1  0   0   0   0  0  0
 309  0 110   0   0   0  0  0
 310  1  0   0   0   0  0  0
 311  0 111   0   0   0  0  0
 312  2  0   0   0   0  0  0
 313  0 112   0   0   0  0  0
 314  1  0   0   0   0  0  0
 315  0 113   0   0   0  0  0
 316  1  0   0   0   0  0  0
 317  0 114   0   0   0  0  0
 318  2  0   0   0   0  0  0
 319  0 115   0   0   0  0  0
 320  1  0   0   0   0  0  0
[RF]
1      80.7072 1 2 100 0 -0.698132
2      212.882 3 4 100 383.188 0.872665
3      80.7072 1 2 100 0 4.44629
4      80.7072 1 2 100 0 0.174533
5      212.882 3 4 100 383.188 1.74533
6      80.7072 1 2 100 0 5.31895
7      80.7072 1 2 100 0 1.0472
8      212.882 3 4 100 383.188 2.61799
9      80.7072 1 2 100 0 6.19162
10      80.7072 1 2 100 0 1.91986
11      212.882 3 4 100 383.188 3.49066
12      80.7072 1 2 100 0 7.06428
13      80.7072 1 2 100 0 2.79253
14      212.882 3 4 100 383.188 4.36332
15      80.7072 1 2 100 0 7.93695
16      80.7072 1 2 100 0 3.66519
17      212.882 3 4 100 383.188 5.23599
18      80.7072 1 2 100 0 8.80961
19      80.7072 1 2 100 0 4.53786
20      212.882 3 4 100 383.188 6.10865
21      80.7072 1 2 100 0 9.68228
22      80.7072 1 2 100 0 5.41052
23      212.882 3 4 100 383.188 6.98132
24      80.7072 1 2 100 0 10.5549
25      80.7072 1 2 100 0 6.28319
26      212.882 3 4 100 383.188 7.85398
27      80.7072 1 2 100 0 11.4276
28      80.7072 1 2 100 0 7.15585
29      212.882 3 4 100 383.188 8.72665
30      80.7072 1 2 100 0 12.3003
31      80.7072 1 2 100 0 8.02851
32      212.882 3 4 100 383.188 9.59931
33      80.7072 1 2 100 0 13.1729
34      80.7072 1 2 100 0 8.90118
35      212.882 3 4 100 383.188 10.472
36      80.7072 1 2 100 0 14.0456
37      80.7072 1 2 100 0 9.77384
38      212.882 3 4 100 383.188 11.3446
39      80.7072 1 2 100 0 14.9183
40      51.2082 1 2 100 0 -0.698132
41      127.729 3 4 100 383.188 0.872665
42      51.2082 1 2 100 0 4.44629
43      51.2082 1 2 100 0 0.174533
44      127.729 3 4 100 383.188 1.74533
45      51.2082 1 2 100 0 5.31895
46      51.2082 1 2 100 0 1.0472
47      127.729 3 4 100 383.188 2.61799
48      51.2082 1 2 100 0 6.19162
49      51.2082 1 2 100 0 1.91986
50      127.729 3 4 100 383.188 3.49066
51      51.2082 1 2 100 0 7.06428
52      51.2082 1 2 100 0 2.79253
53      127.729 3 4 100 383.188 4.36332
54      51.2082 1 2 100 0 7.93695
55      51.2082 1 2 100 0 3.66519
56      127.729 3 4 100 383.188 5.23599
57      51.2082 1 2 100 0 8.80961
58      51.2082 1 2 100 0 4.53786
59      127.729 3 4 100 383.188 6.10865
60      51.2082 1 2 100 0 9.68228
61      51.2082 1 2 100 0 5.41052
62      127.729 3 4 100 383.188 6.98132
63      51.2082 1 2 100 0 10.5549
64      51.2082 1 2 100 0 6.28319
65      127.729 3 4 100 383.188 7.85398
66      51.2082 1 2 100 0 11.4276
67      51.2082 1 2 100 0 7.15585
68      127.729 3 4 100 383.188 8.72665
69      51.2082 1 2 100 0 12.3003
70      51.2082 1 2 100 0 8.02851
71      127.729 3 4 100 383.188 9.59931
72      51.2082 1 2 100 0 13.1729
73      51.2082 1 2 100 0 8.90118
74      127.729 3 4 100 383.188 10.472
75      51.2082 1 2 100 0 14.0456
76      51.2082 1 2 100 0 9.77384
77      127.729 3 4 100 383.188 11.3446
78      51.2082 1 2 100 0 14.9183
79      62.8329 1 2 100 0 -0.698132
80      159.661 3 4 100 383.188 0.872665
81      62.8329 1 2 100 0 4.44629
82      62.8329 1 2 100 0 0.174533
83      159.661 3 4 100 383.188 1.74533
84      62.8329 1 2 100 0 5.31895
85      62.8329 1 2 100 0 1.0472
86      159.661 3 4 100 383.188 2.61799
87      62.8329 1 2 100 0 6.19162
88      62.8329 1 2 100 0 1.91986
89      159.661 3 4 100 383.188 3.49066
90      62.8329 1 2 100 0 7.06428
91      62.8329 1 2 100 0 2.79253
92      159.661 3 4 100 383.188 4.36332
93      62.8329 1 2 100 0 7.93695
94      62.8329 1 2 100 0 3.66519
95      159.661 3 4 100 383.188 5.23599
96      62.8329 1 2 100 0 8.80961
97      62.8329 1 2 100 0 4.53786
98      159.661 3 4 100 383.188 6.10865
99      62.8329 1 2 100 0 9.68228
100      62.8329 1 2 100 0 5.41052
101      159.661 3 4 100 383.188 6.98132
102      62.8329 1 2 100 0 10.5549
103      62.8329 1 2 100 0 6.28319
104      159.661 3 4 100 383.188 7.85398
105      62.8329 1 2 100 0 11.4276
106      62.8329 1 2 100 0 7.15585
107      159.661 3 4 100 383.188 8.72665
108      62.8329 1 2 100 0 12.3003
109      62.8329 1 2 100 0 8.02851
110      159.661 3 4 100 383.188 9.59931
111      62.8329 1 2 100 0 13.1729
112      62.8329 1 2 100 0 8.90118
113      159.661 3 4 100 383.188 10.472
114      62.8329 1 2 100 0 14.0456
115      62.8329 1 2 100 0 9.77384
116      159.661 3 4 100 383.188 11.3446
117      62.8329 1 2 100 0 14.9183
118      43.1225 1 2 100 0 -0.698132
119      106.441 3 4 100 383.188 0.872665
120      43.1225 1 2 100 0 4.44629
121      43.1225 1 2 100 0 0.174533
122      106.441 3 4 100 383.188 1.74533
123      43.1225 1 2 100 0 5.31895
124      43.1225 1 2 100 0 1.0472
125      106.441 3 4 100 383.188 2.61799
126      43.1225 1 2 100 0 6.19162
127      43.1225 1 2 100 0 1.91986
128      106.441 3 4 100 383.188 3.49066
129      43.1225 1 2 100 0 7.06428
130      43.1225 1 2 100 0 2.79253
131      106.441 3 4 100 383.188 4.36332
132      43.1225 1 2 100 0 7.93695
133      43.1225 1 2 100 0 3.66519
134      106.441 3 4 100 383.188 5.23599
135      43.1225 1 2 100 0 8.80961
136      43.1225 1 2 100 0 4.53786
137      106.441 3 4 100 383.188 6.10865
138      43.1225 1 2 100 0 9.68228
139      43.1225 1 2 100 0 5.41052
140      106.441 3 4 100 383.188 6.98132
141      43.1225 1 2 100 0 10.5549
142      43.1225 1 2 100 0 6.28319
143      106.441 3 4 100 383.188 7.85398
144      43.1225 1 2 100 0 11.4276
145      43.1225 1 2 100 0 7.15585
146      106.441 3 4 100 383.188 8.72665
147      43.1225 1 2 100 0 12.3003
148      43.1225 1 2 100 0 8.02851
149      106.441 3 4 100 383.188 9.59931
150      43.1225 1 2 100 0 13.1729
151      43.1225 1 2 100 0 8.90118
152      106.441 3 4 100 383.188 10.472
153      43.1225 1 2 100 0 14.0456
154      43.1225 1 2 100 0 9.77384
155      106.441 3 4 100 383.188 11.3446
156      43.1225 1 2 100 0 14.9183
157      30.5654 1 2 100 0 -0.698132
158      74.5087 3 4 100 383.188 0.872665
159      30.5654 1 2 100 0 4.44629
160      30.5654 1 2 100 0 0.174533
161      74.5087 3 4 100 383.188 1.74533
162      30.5654 1 2 100 0 5.31895
163      30.5654 1 2 100 0 1.0472
164      74.5087 3 4 100 383.188 2.61799
165      30.5654 1 2 100 0 6.19162
166      30.5654 1 2 100 0 1.91986
167      74.5087 3 4 100 383.188 3.49066
168      30.5654 1 2 100 0 7.06428
169      30.5654 1 2 100 0 2.79253
170      74.5087 3 4 100 383.188 4.36332
171      30.5654 1 2 100 0 7.93695
172      30.5654 1 2 100 0 3.66519
173      74.5087 3 4 100 383.188 5.23599
174      30.5654 1 2 100 0 8.80961
175      30.5654 1 2 100 0 4.53786
176      74.5087 3 4 100 383.188 6.10865
177      30.5654 1 2 100 0 9.68228
178      30.5654 1 2 100 0 5.41052
179      74.5087 3 4 100 383.188 6.98132
180      30.5654 1 2 100 0 10.5549
181      30.5654 1 2 100 0 6.28319
182      74.5087 3 4 100 383.188 7.85398
183      30.5654 1 2 100 0 11.4276
184      30.5654 1 2 100 0 7.15585
185      74.5087 3 4 100 383.188 8.72665
186      30.5654 1 2 100 0 12.3003
187      30.5654 1 2 100 0 8.02851
188      74.5087 3 4 100 383.188 9.59931
189      30.5654 1 2 100 0 13.1729
190      30.5654 1 2 100 0 8.90118
191      74.5087 3 4 100 383.188 10.472
192      30.5654 1 2 100 0 14.0456
193      30.5654 1 2 100 0 9.77384
194      74.5087 3 4 100 383.188 11.3446
195      30.5654 1 2 100 0 14.9183
196      87.3043 1 2 100 0 -0.698132
197       234.17 3 4 100 383.188 0.872665
198      87.3043 1 2 100 0 4.44629
199      87.3043 1 2 100 0 0.174533
200       234.17 3 4 100 383.188 1.74533
201      87.3043 1 2 100 0 5.31895
202      87.3043 1 2 100 0 1.0472
203       234.17 3 4 100 383.188 2.61799
204      87.3043 1 2 100 0 6.19162
205      87.3043 1 2 100 0 1.91986
206       234.17 3 4 100 383.188 3.49066
207      87.3043 1 2 100 0 7.06428
208      87.3043 1 2 100 0 2.79253
209       234.17 3 4 100 383.188 4.36332
210      87.3043 1 2 100 0 7.93695
211      87.3043 1 2 100 0 3.66519
212       234.17 3 4 100 383.188 5.23599
213      87.3043 1 2 100 0 8.80961
214      87.3043 1 2 100 0 4.53786
215       234.17 3 4 100 383.188 6.10865
216      87.3043 1 2 100 0 9.68228
217      87.3043 1 2 100 0 5.41052
218       234.17 3 4 100 383.188 6.98132
219      87.3043 1 2 100 0 10.5549
220      87.3043 1 2 100 0 6.28319
221       234.17 3 4 100 383.188 7.85398
222      87.3043 1 2 100 0 11.4276
223      87.3043 1 2 100 0 7.15585
224       234.17 3 4 100 383.188 8.72665
225      87.3043 1 2 100 0 12.3003
226      87.3043 1 2 100 0 8.02851
227       234.17 3 4 100 383.188 9.59931
228      87.3043 1 2 100 0 13.1729
229      87.3043 1 2 100 0 8.90118
230       234.17 3 4 100 383.188 10.472
231      87.3043 1 2 100 0 14.0456
232      87.3043 1 2 100 0 9.77384
233       234.17 3 4 100 383.188 11.3446
234      87.3043 1 2 100 0 14.9183
235      93.5835 1 2 100 0 -0.698132
236      255.458 3 4 100 383.188 0.872665
237      93.5835 1 2 100 0 4.44629
238      93.5835 1 2 100 0 0.174533
239      255.458 3 4 100 383.188 1.74533
240      93.5835 1 2 100 0 5.31895
241      93.5835 1 2 100 0 1.0472
242      255.458 3 4 100 383.188 2.61799
243      93.5835 1 2 100 0 6.19162
244      93.5835 1 2 100 0 1.91986
245      255.458 3 4 100 383.188 3.49066
246      93.5835 1 2 100 0 7.06428
247      93.5835 1 2 100 0 2.79253
248      255.458 3 4 100 383.188 4.36332
249      93.5835 1 2 100 0 7.93695
250      93.5835 1 2 100 0 3.66519
251      255.458 3 4 100 383.188 5.23599
252      93.5835 1 2 100 0 8.80961
253      93.5835 1 2 100 0 4.53786
254      255.458 3 4 100 383.188 6.10865
255      93.5835 1 2 100 0 9.68228
256      93.5835 1 2 100 0 5.41052
257      255.458 3 4 100 383.188 6.98132
258      93.5835 1 2 100 0 10.5549
259      93.5835 1 2 100 0 6.28319
260      255.458 3 4 100 383.188 7.85398
261      93.5835 1 2 100 0 11.4276
262      93.5835 1 2 100 0 7.15585
263      255.458 3 4 100 383.188 8.72665
264      93.5835 1 2 100 0 12.3003
265      93.5835 1 2 100 0 8.02851
266      255.458 3 4 100 383.188 9.59931
267      93.5835 1 2 100 0 13.1729
268      93.5835 1 2 100 0 8.90118
269      255.458 3 4 100 383.188 10.472
270      93.5835 1 2 100 0 14.0456
271      93.5835 1 2 100 0 9.77384
272      255.458 3 4 100 383.188 11.3446
273      93.5835 1 2 100 0 14.9183
274      90.4835 1 2 100 0 -0.698132
275      244.814 3 4 100 383.188 0.872665
276      90.4835 1 2 100 0 4.44629
277      90.4835 1 2 100 0 0.174533
278      244.814 3 4 100 383.188 1.74533
279      90.4835 1 2 100 0 5.31895
280      90.4835 1 2 100 0 1.0472
281      244.814 3 4 100 383.188 2.61799
282      90.4835 1 2 100 0 6.19162
283      90.4835 1 2 100 0 1.91986
284      244.814 3 4 100 383.188 3.49066
285      90.4835 1 2 100 0 7.06428
286      90.4835 1 2 100 0 2.79253
287      244.814 3 4 100 383.188 4.36332
288      90.4835 1 2 100 0 7.93695
289      90.4835 1 2 100 0 3.66519
290      244.814 3 4 100 383.188 5.23599
291      90.4835 1 2 100 0 8.80961
292      90.4835 1 2 100 0 4.53786
293      244.814 3 4 100 383.188 6.10865
294      90.4835 1 2 100 0 9.68228
295      90.4835 1 2 100 0 5.41052
296      244.814 3 4 100 383.188 6.98132
297      90.4835 1 2 100 0 10.5549
298      90.4835 1 2 100 0 6.28319
299      244.814 3 4 100 383.188 7.85398
300      90.4835 1 2 100 0 11.4276
301      90.4835 1 2 100 0 7.15585
302      244.814 3 4 100 383.188 8.72665
303      90.4835 1 2 100 0 12.3003
304      90.4835 1 2 100 0 8.02851
305      244.814 3 4 100 383.188 9.59931
306      90.4835 1 2 100 0 13.1729
307      90.4835 1 2 100 0 8.90118
308      244.814 3 4 100 383.188 10.472
309      90.4835 1 2 100 0 14.0456
310      90.4835 1 2 100 0 9.77384
311      244.814 3 4 100 383.188 11.3446
312      90.4835 1 2 100 0 14.9183
313      4.41983 1 2 100 0 -0.698132
314      10.6441 3 4 100 383.188 0.872665
315      4.41983 1 2 100 0 4.44629
316      4.41983 1 2 100 0 0.174533
317      10.6441 3 4 100 383.188 1.74533
318      4.41983 1 2 100 0 5.31895
319      4.41983 1 2 100 0 1.0472
320      10.6441 3 4 100 383.188 2.61799
321      4.41983 1 2 100 0 6.19162
322      4.41983 1 2 100 0 1.91986
323      10.6441 3 4 100 383.188 3.49066
324      4.41983 1 2 100 0 7.06428
325      4.41983 1 2 100 0 2.79253
326      10.6441 3 4 100 383.188 4.36332
327      4.41983 1 2 100 0 7.93695
328      4.41983 1 2 100 0 3.66519
329      10.6441 3 4 100 383.188 5.23599
330      4.41983 1 2 100 0 8.80961
331      4.41983 1 2 100 0 4.53786
332      10.6441 3 4 100 383.188 6.10865
333      4.41983 1 2 100 0 9.68228
334      4.41983 1 2 100 0 5.41052
335      10.6441 3 4 100 383.188 6.98132
336      4.41983 1 2 100 0 10.5549
337      4.41983 1 2 100 0 6.28319
338      10.6441 3 4 100 383.188 7.85398
339      4.41983 1 2 100 0 11.4276
340      4.41983 1 2 100 0 7.15585
341      10.6441 3 4 100 383.188 8.72665
342      4.41983 1 2 100 0 12.3003
343      4.41983 1 2 100 0 8.02851
344      10.6441 3 4 100 383.188 9.59931
345      4.41983 1 2 100 0 13.1729
346      4.41983 1 2 100 0 8.90118
347      10.6441 3 4 100 383.188 10.472
348      4.41983 1 2 100 0 14.0456
349      4.41983 1 2 100 0 9.77384
350      10.6441 3 4 100 383.188 11.3446
351      4.41983 1 2 100 0 14.9183
352      73.7918 1 2 100 0 -0.698132
353      191.594 3 4 100 383.188 0.872665
354      73.7918 1 2 100 0 4.44629
355      73.7918 1 2 100 0 0.174533
356      191.594 3 4 100 383.188 1.74533
357      73.7918 1 2 100 0 5.31895
358      73.7918 1 2 100 0 1.0472
359      191.594 3 4 100 383.188 2.61799
360      73.7918 1 2 100 0 6.19162
361      73.7918 1 2 100 0 1.91986
362      191.594 3 4 100 383.188 3.49066
363      73.7918 1 2 100 0 7.06428
364      73.7918 1 2 100 0 2.79253
365      191.594 3 4 100 383.188 4.36332
366      73.7918 1 2 100 0 7.93695
367      73.7918 1 2 100 0 3.66519
368      191.594 3 4 100 383.188 5.23599
369      73.7918 1 2 100 0 8.80961
370      73.7918 1 2 100 0 4.53786
371      191.594 3 4 100 383.188 6.10865
372      73.7918 1 2 100 0 9.68228
373      73.7918 1 2 100 0 5.41052
374      191.594 3 4 100 383.188 6.98132
375      73.7918 1 2 100 0 10.5549
376      73.7918 1 2 100 0 6.28319
377      191.594 3 4 100 383.188 7.85398
378      73.7918 1 2 100 0 11.4276
379      73.7918 1 2 100 0 7.15585
380      191.594 3 4 100 383.188 8.72665
381      73.7918 1 2 100 0 12.3003
382      73.7918 1 2 100 0 8.02851
383      191.594 3 4 100 383.188 9.59931
384      73.7918 1 2 100 0 13.1729
385      73.7918 1 2 100 0 8.90118
386      191.594 3 4 100 383.188 10.472
387      73.7918 1 2 100 0 14.0456
388      73.7918 1 2 100 0 9.77384
389      191.594 3 4 100 383.188 11.3446
390      73.7918 1 2 100 0 14.9183
391      59.0292 1 2 100 0 -0.698132
392      149.017 3 4 100 383.188 0.872665
393      59.0292 1 2 100 0 4.44629
394      59.0292 1 2 100 0 0.174533
395      149.017 3 4 100 383.188 1.74533
396      59.0292 1 2 100 0 5.31895
397      59.0292 1 2 100 0 1.0472
398      149.017 3 4 100 383.188 2.61799
399      59.0292 1 2 100 0 6.19162
400      59.0292 1 2 100 0 1.91986
401      149.017 3 4 100 383.188 3.49066
402      59.0292 1 2 100 0 7.06428
403      59.0292 1 2 100 0 2.79253
404      149.017 3 4 100 383.188 4.36332
405      59.0292 1 2 100 0 7.93695
406      59.0292 1 2 100 0 3.66519
407      149.017 3 4 100 383.188 5.23599
408      59.0292 1 2 100 0 8.80961
409      59.0292 1 2 100 0 4.53786
410      149.017 3 4 100 383.188 6.10865
411      59.0292 1 2 100 0 9.68228
412      59.0292 1 2 100 0 5.41052
413      149.017 3 4 100 383.188 6.98132
414      59.0292 1 2 100 0 10.5549
415      59.0292 1 2 100 0 6.28319
416      149.017 3 4 100 383.188 7.85398
417      59.0292 1 2 100 0 11.4276
418      59.0292 1 2 100 0 7.15585
419      149.017 3 4 100 383.188 8.72665
420      59.0292 1 2 100 0 12.3003
421      59.0292 1 2 100 0 8.02851
422      149.017 3 4 100 383.188 9.59931
423      59.0292 1 2 100 0 13.1729
424      59.0292 1 2 100 0 8.90118
425      149.017 3 4 100 383.188 10.472
426      59.0292 1 2 100 0 14.0456
427      59.0292 1 2 100 0 9.77384
428      149.017 3 4 100 383.188 11.3446
429      59.0292 1 2 100 0 14.9183
430      77.2891 1 2 100 0 -0.698132
431      202.238 3 4 100 383.188 0.872665
432      77.2891 1 2 100 0 4.44629
433      77.2891 1 2 100 0 0.174533
434      202.238 3 4 100 383.188 1.74533
435      77.2891 1 2 100 0 5.31895
436      77.2891 1 2 100 0 1.0472
437      202.238 3 4 100 383.188 2.61799
438      77.2891 1 2 100 0 6.19162
439      77.2891 1 2 100 0 1.91986
440      202.238 3 4 100 383.188 3.49066
441      77.2891 1 2 100 0 7.06428
442      77.2891 1 2 100 0 2.79253
443      202.238 3 4 100 383.188 4.36332
444      77.2891 1 2 100 0 7.93695
445      77.2891 1 2 100 0 3.66519
446      202.238 3 4 100 383.188 5.23599
447      77.2891 1 2 100 0 8.80961
448      77.2891 1 2 100 0 4.53786
449      202.238 3 4 100 383.188 6.10865
450      77.2891 1 2 100 0 9.68228
451      77.2891 1 2 100 0 5.41052
452      202.238 3 4 100 383.188 6.98132
453      77.2891 1 2 100 0 10.5549
454      77.2891 1 2 100 0 6.28319
455      202.238 3 4 100 383.188 7.85398
456      77.2891 1 2 100 0 11.4276
457      77.2891 1 2 100 0 7.15585
458      202.238 3 4 100 383.188 8.72665
459      77.2891 1 2 100 0 12.3003
460      77.2891 1 2 100 0 8.02851
461      202.238 3 4 100 383.188 9.59931
462      77.2891 1 2 100 0 13.1729
463      77.2891 1 2 100 0 8.90118
464      202.238 3 4 100 383.188 10.472
465      77.2891 1 2 100 0 14.0456
466      77.2891 1 2 100 0 9.77384
467      202.238 3 4 100 383.188 11.3446
468      77.2891 1 2 100 0 14.9183
469      70.2159 1 2 100 0 -0.698132
470       180.95 3 4 100 383.188 0.872665
471      70.2159 1 2 100 0 4.44629
472      70.2159 1 2 100 0 0.174533
473       180.95 3 4 100 383.188 1.74533
474      70.2159 1 2 100 0 5.31895
475      70.2159 1 2 100 0 1.0472
476       180.95 3 4 100 383.188 2.61799
477      70.2159 1 2 100 0 6.19162
478      70.2159 1 2 100 0 1.91986
479       180.95 3 4 100 383.188 3.49066
480      70.2159 1 2 100 0 7.06428
481      70.2159 1 2 100 0 2.79253
482       180.95 3 4 100 383.188 4.36332
483      70.2159 1 2 100 0 7.93695
484      70.2159 1 2 100 0 3.66519
485       180.95 3 4 100 383.188 5.23599
486      70.2159 1 2 100 0 8.80961
487      70.2159 1 2 100 0 4.53786
488       180.95 3 4 100 383.188 6.10865
489      70.2159 1 2 100 0 9.68228
490      70.2159 1 2 100 0 5.41052
491       180.95 3 4 100 383.188 6.98132
492      70.2159 1 2 100 0 10.5549
493      70.2159 1 2 100 0 6.28319
494       180.95 3 4 100 383.188 7.85398
495      70.2159 1 2 100 0 11.4276
496      70.2159 1 2 100 0 7.15585
497       180.95 3 4 100 383.188 8.72665
498      70.2159 1 2 100 0 12.3003
499      70.2159 1 2 100 0 8.02851
500       180.95 3 4 100 383.188 9.59931
501      70.2159 1 2 100 0 13.1729
502      70.2159 1 2 100 0 8.90118
503       180.95 3 4 100 383.188 10.472
504      70.2159 1 2 100 0 14.0456
505      70.2159 1 2 100 0 9.77384
506       180.95 3 4 100 383.188 11.3446
507      70.2159 1 2 100 0 14.9183
508      55.1534 1 2 100 0 -0.698132
509      138.373 3 4 100 383.188 0.872665
510      55.1534 1 2 100 0 4.44629
511      55.1534 1 2 100 0 0.174533
512      138.373 3 4 100 383.188 1.74533
513      55.1534 1 2 100 0 5.31895
514      55.1534 1 2 100 0 1.0472
515      138.373 3 4 100 383.188 2.61799
516      55.1534 1 2 100 0 6.19162
517      55.1534 1 2 100 0 1.91986
518      138.373 3 4 100 383.188 3.49066
519      55.1534 1 2 100 0 7.06428
520      55.1534 1 2 100 0 2.79253
521      138.373 3 4 100 383.188 4.36332
522      55.1534 1 2 100 0 7.93695
523      55.1534 1 2 100 0 3.66519
524      138.373 3 4 100 383.188 5.23599
525      55.1534 1 2 100 0 8.80961
526      55.1534 1 2 100 0 4.53786
527      138.373 3 4 100 383.188 6.10865
528      55.1534 1 2 100 0 9.68228
529      55.1534 1 2 100 0 5.41052
530      138.373 3 4 100 383.188 6.98132
531      55.1534 1 2 100 0 10.5549
532      55.1534 1 2 100 0 6.28319
533      138.373 3 4 100 383.188 7.85398
534      55.1534 1 2 100 0 11.4276
535      55.1534 1 2 100 0 7.15585
536      138.373 3 4 100 383.188 8.72665
537      55.1534 1 2 100 0 12.3003
538      55.1534 1 2 100 0 8.02851
539      138.373 3 4 100 383.188 9.59931
540      55.1534 1 2 100 0 13.1729
541      55.1534 1 2 100 0 8.90118
542      138.373 3 4 100 383.188 10.472
