# Pulseq sequence file
# Created by PyPulseq

[VERSION]
major 1
minor 3
revision 1post1

[DEFINITIONS]
b1 1.8 1.2 1.9 1.9 1.8 1.3 1.2 1.9 1.9 0.9 1.3 1.4 1.3 1.2 1.2 1.1 1.9 0.9 0.9 1.5 1.9 1.9 1.9 1.9 1.3 1.1 1.5 1.2 0.9 1.9 1.9 0.9 0.9 1.8 1.9 1.4 1.9 1.2 1.9 1.9 
offsets_ppm 50 10.2 23.6 15.6 11.3 15.2 8.9 23.2 28.4 50 28.6 19.9 11.9 11.7 9.7 8.7 9 50 49.9 35.6 50 50 10.1 50 10.1 8.7 35.1 9.4 49.8 34.8 10.4 50 50 18.9 8.1 24.2 10.8 9.6 50 50 
tsat 2 2 1.5 0.7 0.4 2 1.9 2 2 0.4 2 1.9 0.8 2 2 1.9 1.9 0.4 0.4 2 1.9 1.9 0.9 0.4 0.5 2 1.9 2 0.4 0.6 0.4 0.4 0.4 0.7 2 2 1 1 2 2 
trec 4.5 3.7 4.4 4.5 4.3 3.6 3.7 3.5 3.5 3.5 3.5 3.6 4.5 3.8 3.5 4.2 3.7 3.5 3.5 4.5 4.5 4.5 4.2 3.5 3.5 3.9 4.4 3.6 3.8 4.4 4.5 3.5 4 4.5 3.6 3.5 4 4.4 4.5 4.2 
tp 0.1 
td 0.1 
dcsat 0.5 
n_pulses 10 10 8 4 2 10 10 10 10 2 10 10 4 10 10 10 10 2 2 10 10 10 5 2 3 10 10 10 2 3 2 2 2 4 10 10 5 5 10 10 
gamma_hz 42.5763823 
freq 127.7153 
b0 2.99967477 
spoiling 1 
seq_id_string loas_mtc_40 

# Format of blocks:
#  #  D RF  GX  GY  GZ ADC EXT
[BLOCKS]
   1  1  0   0   0   0  0  0
   2  0  1   0   0   0  0  0
   3  1  0   0   0   0  0  0
   4  2  0   0   0   0  0  0
   5  1  0   0   0   0  0  0
   6  0  2   0   0   0  0  0
   7  1  0   0   0   0  0  0
   8  2  0   0   0   0  0  0
   9  1  0   0   0   0  0  0
  10  0  3   0   0   0  0  0
  11  1  0   0   0   0  0  0
  12  2  0   0   0   0  0  0
  13  1  0   0   0   0  0  0
  14  0  4   0   0   0  0  0
  15  1  0   0   0   0  0  0
  16  2  0   0   0   0  0  0
  17  1  0   0   0   0  0  0
  18  0  5   0   0   0  0  0
  19  1  0   0   0   0  0  0
  20  2  0   0   0   0  0  0
  21  1  0   0   0   0  0  0
  22  0  6   0   0   0  0  0
  23  1  0   0   0   0  0  0
  24  2  0   0   0   0  0  0
  25  1  0   0   0   0  0  0
  26  0  7   0   0   0  0  0
  27  1  0   0   0   0  0  0
  28  2  0   0   0   0  0  0
  29  1  0   0   0   0  0  0
  30  0  8   0   0   0  0  0
  31  1  0   0   0   0  0  0
  32  2  0   0   0   0  0  0
  33  1  0   0   0   0  0  0
  34  0  9   0   0   0  0  0
  35  1  0   0   0   0  0  0
  36  2  0   0   0   0  0  0
  37  1  0   0   0   0  0  0
  38  0 10   0   0   0  0  0
  39  1  0   0   0   0  0  0
  40  3  0   0   0   0  0  0
  41  0  0   1   1   1  0  0
  42  3  0   0   0   0  0  0
  43  0  0   0   0   0  1  0
  44  4  0   0   0   0  0  0
  45  0 11   0   0   0  0  0
  46  5  0   0   0   0  0  0
  47  0 12   0   0   0  0  0
  48  5  0   0   0   0  0  0
  49  0 13   0   0   0  0  0
  50  2  0   0   0   0  0  0
  51  0 14   0   0   0  0  0
  52  5  0   0   0   0  0  0
  53  0 15   0   0   0  0  0
  54  5  0   0   0   0  0  0
  55  0 16   0   0   0  0  0
  56  2  0   0   0   0  0  0
  57  0 17   0   0   0  0  0
  58  5  0   0   0   0  0  0
  59  0 18   0   0   0  0  0
  60  5  0   0   0   0  0  0
  61  0 19   0   0   0  0  0
  62  2  0   0   0   0  0  0
  63  0 20   0   0   0  0  0
  64  5  0   0   0   0  0  0
  65  0 21   0   0   0  0  0
  66  5  0   0   0   0  0  0
  67  0 22   0   0   0  0  0
  68  2  0   0   0   0  0  0
  69  0 23   0   0   0  0  0
  70  5  0   0   0   0  0  0
  71  0 24   0   0   0  0  0
  72  5  0   0   0   0  0  0
  73  0 25   0   0   0  0  0
  74  2  0   0   0   0  0  0
  75  0 26   0   0   0  0  0
  76  5  0   0   0   0  0  0
  77  0 27   0   0   0  0  0
  78  5  0   0   0   0  0  0
  79  0 28   0   0   0  0  0
  80  2  0   0   0   0  0  0
  81  0 29   0   0   0  0  0
  82  5  0   0   0   0  0  0
  83  0 30   0   0   0  0  0
  84  5  0   0   0   0  0  0
  85  0 31   0   0   0  0  0
  86  2  0   0   0   0  0  0
  87  0 32   0   0   0  0  0
  88  5  0   0   0   0  0  0
  89  0 33   0   0   0  0  0
  90  5  0   0   0   0  0  0
  91  0 34   0   0   0  0  0
  92  2  0   0   0   0  0  0
  93  0 35   0   0   0  0  0
  94  5  0   0   0   0  0  0
  95  0 36   0   0   0  0  0
  96  5  0   0   0   0  0  0
  97  0 37   0   0   0  0  0
  98  2  0   0   0   0  0  0
  99  0 38   0   0   0  0  0
 100  5  0   0   0   0  0  0
 101  0 39   0   0   0  0  0
 102  5  0   0   0   0  0  0
 103  0 40   0   0   0  0  0
 104  3  0   0   0   0  0  0
 105  0  0   1   1   1  0  0
 106  3  0   0   0   0  0  0
 107  0  0   0   0   0  1  0
 108  6  0   0   0   0  0  0
 109  0 41   0   0   0  0  0
 110  5  0   0   0   0  0  0
 111  0 42   0   0   0  0  0
 112  5  0   0   0   0  0  0
 113  0 43   0   0   0  0  0
 114  2  0   0   0   0  0  0
 115  0 44   0   0   0  0  0
 116  5  0   0   0   0  0  0
 117  0 45   0   0   0  0  0
 118  5  0   0   0   0  0  0
 119  0 46   0   0   0  0  0
 120  2  0   0   0   0  0  0
 121  0 47   0   0   0  0  0
 122  5  0   0   0   0  0  0
 123  0 48   0   0   0  0  0
 124  5  0   0   0   0  0  0
 125  0 49   0   0   0  0  0
 126  2  0   0   0   0  0  0
 127  0 50   0   0   0  0  0
 128  5  0   0   0   0  0  0
 129  0 51   0   0   0  0  0
 130  5  0   0   0   0  0  0
 131  0 52   0   0   0  0  0
 132  2  0   0   0   0  0  0
 133  0 53   0   0   0  0  0
 134  5  0   0   0   0  0  0
 135  0 54   0   0   0  0  0
 136  5  0   0   0   0  0  0
 137  0 55   0   0   0  0  0
 138  2  0   0   0   0  0  0
 139  0 56   0   0   0  0  0
 140  5  0   0   0   0  0  0
 141  0 57   0   0   0  0  0
 142  5  0   0   0   0  0  0
 143  0 58   0   0   0  0  0
 144  2  0   0   0   0  0  0
 145  0 59   0   0   0  0  0
 146  5  0   0   0   0  0  0
 147  0 60   0   0   0  0  0
 148  5  0   0   0   0  0  0
 149  0 61   0   0   0  0  0
 150  2  0   0   0   0  0  0
 151  0 62   0   0   0  0  0
 152  5  0   0   0   0  0  0
 153  0 63   0   0   0  0  0
 154  5  0   0   0   0  0  0
 155  0 64   0   0   0  0  0
 156  3  0   0   0   0  0  0
 157  0  0   1   1   1  0  0
 158  3  0   0   0   0  0  0
 159  0  0   0   0   0  1  0
 160  7  0   0   0   0  0  0
 161  0 65   0   0   0  0  0
 162  5  0   0   0   0  0  0
 163  0 66   0   0   0  0  0
 164  5  0   0   0   0  0  0
 165  0 67   0   0   0  0  0
 166  2  0   0   0   0  0  0
 167  0 68   0   0   0  0  0
 168  5  0   0   0   0  0  0
 169  0 69   0   0   0  0  0
 170  5  0   0   0   0  0  0
 171  0 70   0   0   0  0  0
 172  2  0   0   0   0  0  0
 173  0 71   0   0   0  0  0
 174  5  0   0   0   0  0  0
 175  0 72   0   0   0  0  0
 176  5  0   0   0   0  0  0
 177  0 73   0   0   0  0  0
 178  2  0   0   0   0  0  0
 179  0 74   0   0   0  0  0
 180  5  0   0   0   0  0  0
 181  0 75   0   0   0  0  0
 182  5  0   0   0   0  0  0
 183  0 76   0   0   0  0  0
 184  3  0   0   0   0  0  0
 185  0  0   1   1   1  0  0
 186  3  0   0   0   0  0  0
 187  0  0   0   0   0  1  0
 188  4  0   0   0   0  0  0
 189  0 77   0   0   0  0  0
 190  5  0   0   0   0  0  0
 191  0 78   0   0   0  0  0
 192  5  0   0   0   0  0  0
 193  0 79   0   0   0  0  0
 194  2  0   0   0   0  0  0
 195  0 80   0   0   0  0  0
 196  5  0   0   0   0  0  0
 197  0 81   0   0   0  0  0
 198  5  0   0   0   0  0  0
 199  0 82   0   0   0  0  0
 200  3  0   0   0   0  0  0
 201  0  0   1   1   1  0  0
 202  3  0   0   0   0  0  0
 203  0  0   0   0   0  1  0
 204  8  0   0   0   0  0  0
 205  0 83   0   0   0  0  0
 206  5  0   0   0   0  0  0
 207  0 84   0   0   0  0  0
 208  5  0   0   0   0  0  0
 209  0 85   0   0   0  0  0
 210  2  0   0   0   0  0  0
 211  0 86   0   0   0  0  0
 212  5  0   0   0   0  0  0
 213  0 87   0   0   0  0  0
 214  5  0   0   0   0  0  0
 215  0 88   0   0   0  0  0
 216  2  0   0   0   0  0  0
 217  0 89   0   0   0  0  0
 218  5  0   0   0   0  0  0
 219  0 90   0   0   0  0  0
 220  5  0   0   0   0  0  0
 221  0 91   0   0   0  0  0
 222  2  0   0   0   0  0  0
 223  0 92   0   0   0  0  0
 224  5  0   0   0   0  0  0
 225  0 93   0   0   0  0  0
 226  5  0   0   0   0  0  0
 227  0 94   0   0   0  0  0
 228  2  0   0   0   0  0  0
 229  0 95   0   0   0  0  0
 230  5  0   0   0   0  0  0
 231  0 96   0   0   0  0  0
 232  5  0   0   0   0  0  0
 233  0 97   0   0   0  0  0
 234  2  0   0   0   0  0  0
 235  0 98   0   0   0  0  0
 236  5  0   0   0   0  0  0
 237  0 99   0   0   0  0  0
 238  5  0   0   0   0  0  0
 239  0 100   0   0   0  0  0
 240  2  0   0   0   0  0  0
 241  0 101   0   0   0  0  0
 242  5  0   0   0   0  0  0
 243  0 102   0   0   0  0  0
 244  5  0   0   0   0  0  0
 245  0 103   0   0   0  0  0
 246  2  0   0   0   0  0  0
 247  0 104   0   0   0  0  0
 248  5  0   0   0   0  0  0
 249  0 105   0   0   0  0  0
 250  5  0   0   0   0  0  0
 251  0 106   0   0   0  0  0
 252  2  0   0   0   0  0  0
 253  0 107   0   0   0  0  0
 254  5  0   0   0   0  0  0
 255  0 108   0   0   0  0  0
 256  5  0   0   0   0  0  0
 257  0 109   0   0   0  0  0
 258  2  0   0   0   0  0  0
 259  0 110   0   0   0  0  0
 260  5  0   0   0   0  0  0
 261  0 111   0   0   0  0  0
 262  5  0   0   0   0  0  0
 263  0 112   0   0   0  0  0
 264  3  0   0   0   0  0  0
 265  0  0   1   1   1  0  0
 266  3  0   0   0   0  0  0
 267  0  0   0   0   0  1  0
 268  9  0   0   0   0  0  0
 269  0 113   0   0   0  0  0
 270  5  0   0   0   0  0  0
 271  0 114   0   0   0  0  0
 272  5  0   0   0   0  0  0
 273  0 115   0   0   0  0  0
 274  2  0   0   0   0  0  0
 275  0 116   0   0   0  0  0
 276  5  0   0   0   0  0  0
 277  0 117   0   0   0  0  0
 278  5  0   0   0   0  0  0
 279  0 118   0   0   0  0  0
 280  2  0   0   0   0  0  0
 281  0 119   0   0   0  0  0
 282  5  0   0   0   0  0  0
 283  0 120   0   0   0  0  0
 284  5  0   0   0   0  0  0
 285  0 121   0   0   0  0  0
 286  2  0   0   0   0  0  0
 287  0 122   0   0   0  0  0
 288  5  0   0   0   0  0  0
 289  0 123   0   0   0  0  0
 290  5  0   0   0   0  0  0
 291  0 124   0   0   0  0  0
 292  2  0   0   0   0  0  0
 293  0 125   0   0   0  0  0
 294  5  0   0   0   0  0  0
 295  0 126   0   0   0  0  0
 296  5  0   0   0   0  0  0
 297  0 127   0   0   0  0  0
 298  2  0   0   0   0  0  0
 299  0 128   0   0   0  0  0
 300  5  0   0   0   0  0  0
 301  0 129   0   0   0  0  0
 302  5  0   0   0   0  0  0
 303  0 130   0   0   0  0  0
 304  2  0   0   0   0  0  0
 305  0 131   0   0   0  0  0
 306  5  0   0   0   0  0  0
 307  0 132   0   0   0  0  0
 308  5  0   0   0   0  0  0
[RF]
1      76.6375 1 2 100 6385.77 0.872665
2      76.6375 1 2 100 6385.77 1.74533
3      76.6375 1 2 100 6385.77 2.61799
4      76.6375 1 2 100 6385.77 3.49066
5      76.6375 1 2 100 6385.77 4.36332
6      76.6375 1 2 100 6385.77 5.23599
7      76.6375 1 2 100 6385.77 6.10865
8      76.6375 1 2 100 6385.77 6.98132
9      76.6375 1 2 100 6385.77 7.85398
10      76.6375 1 2 100 6385.77 8.72665
11      6.23885 3 4 100 0 -0.698132
12      51.0917 1 2 100 1302.7 0.872665
13      6.23885 3 4 100 0 4.13745
14      6.23885 3 4 100 0 0.174533
15      51.0917 1 2 100 1302.7 1.74533
16      6.23885 3 4 100 0 5.01011
17      6.23885 3 4 100 0 1.0472
18      51.0917 1 2 100 1302.7 2.61799
19      6.23885 3 4 100 0 5.88277
20      6.23885 3 4 100 0 1.91986
21      51.0917 1 2 100 1302.7 3.49066
22      6.23885 3 4 100 0 6.75544
23      6.23885 3 4 100 0 2.79253
24      51.0917 1 2 100 1302.7 4.36332
25      6.23885 3 4 100 0 7.6281
26      6.23885 3 4 100 0 3.66519
27      51.0917 1 2 100 1302.7 5.23599
28      6.23885 3 4 100 0 8.50077
29      6.23885 3 4 100 0 4.53786
30      51.0917 1 2 100 1302.7 6.10865
31      6.23885 3 4 100 0 9.37343
32      6.23885 3 4 100 0 5.41052
33      51.0917 1 2 100 1302.7 6.98132
34      6.23885 3 4 100 0 10.2461
35      6.23885 3 4 100 0 6.28319
36      51.0917 1 2 100 1302.7 7.85398
37      6.23885 3 4 100 0 11.1188
38      6.23885 3 4 100 0 7.15585
39      51.0917 1 2 100 1302.7 8.72665
40      6.23885 3 4 100 0 11.9914
41      4.27055 3 4 100 0 -0.698132
42      80.8951 1 2 100 3014.08 0.872665
43      4.27055 3 4 100 0 5.00768
44      4.27055 3 4 100 0 0.174533
45      80.8951 1 2 100 3014.08 1.74533
46      4.27055 3 4 100 0 5.88034
47      4.27055 3 4 100 0 1.0472
48      80.8951 1 2 100 3014.08 2.61799
49      4.27055 3 4 100 0 6.75301
50      4.27055 3 4 100 0 1.91986
51      80.8951 1 2 100 3014.08 3.49066
52      4.27055 3 4 100 0 7.62567
53      4.27055 3 4 100 0 2.79253
54      80.8951 1 2 100 3014.08 4.36332
55      4.27055 3 4 100 0 8.49834
56      4.27055 3 4 100 0 3.66519
57      80.8951 1 2 100 3014.08 5.23599
58      4.27055 3 4 100 0 9.371
59      4.27055 3 4 100 0 4.53786
60      80.8951 1 2 100 3014.08 6.10865
61      4.27055 3 4 100 0 10.2437
62      4.27055 3 4 100 0 5.41052
63      80.8951 1 2 100 3014.08 6.98132
64      4.27055 3 4 100 0 11.1163
65      6.45857 3 4 100 0 -0.698132
66      80.8951 1 2 100 1992.36 0.872665
67      6.45857 3 4 100 0 3.92546
68      6.45857 3 4 100 0 0.174533
69      80.8951 1 2 100 1992.36 1.74533
70      6.45857 3 4 100 0 4.79813
71      6.45857 3 4 100 0 1.0472
72      80.8951 1 2 100 1992.36 2.61799
73      6.45857 3 4 100 0 5.67079
74      6.45857 3 4 100 0 1.91986
75      80.8951 1 2 100 1992.36 3.49066
76      6.45857 3 4 100 0 6.54346
77      8.44369 3 4 100 0 -0.698132
78      76.6375 1 2 100 1443.18 0.872665
79      8.44369 3 4 100 0 4.44333
80      8.44369 3 4 100 0 0.174533
81      76.6375 1 2 100 1443.18 1.74533
82      8.44369 3 4 100 0 5.31599
83      4.53657 3 4 100 0 -0.698132
84      55.3493 1 2 100 1941.27 0.872665
85      4.53657 3 4 100 0 3.24303
86      4.53657 3 4 100 0 0.174533
87      55.3493 1 2 100 1941.27 1.74533
88      4.53657 3 4 100 0 4.1157
89      4.53657 3 4 100 0 1.0472
90      55.3493 1 2 100 1941.27 2.61799
91      4.53657 3 4 100 0 4.98836
92      4.53657 3 4 100 0 1.91986
93      55.3493 1 2 100 1941.27 3.49066
94      4.53657 3 4 100 0 5.86103
95      4.53657 3 4 100 0 2.79253
96      55.3493 1 2 100 1941.27 4.36332
97      4.53657 3 4 100 0 6.73369
98      4.53657 3 4 100 0 3.66519
99      55.3493 1 2 100 1941.27 5.23599
100      4.53657 3 4 100 0 7.60636
101      4.53657 3 4 100 0 4.53786
102      55.3493 1 2 100 1941.27 6.10865
103      4.53657 3 4 100 0 8.47902
104      4.53657 3 4 100 0 5.41052
105      55.3493 1 2 100 1941.27 6.98132
106      4.53657 3 4 100 0 9.35169
107      4.53657 3 4 100 0 6.28319
108      55.3493 1 2 100 1941.27 7.85398
109      4.53657 3 4 100 0 10.2244
110      4.53657 3 4 100 0 7.15585
111      55.3493 1 2 100 1941.27 8.72665
112      4.53657 3 4 100 0 11.097
113      7.14899 3 4 100 0 -0.698132
114      51.0917 1 2 100 1136.67 0.872665
115      7.14899 3 4 100 0 6.63194
116      7.14899 3 4 100 0 0.174533
117      51.0917 1 2 100 1136.67 1.74533
118      7.14899 3 4 100 0 7.5046
119      7.14899 3 4 100 0 1.0472
120      51.0917 1 2 100 1136.67 2.61799
121      7.14899 3 4 100 0 8.37727
122      7.14899 3 4 100 0 1.91986
123      51.0917 1 2 100 1136.67 3.49066
124      7.14899 3 4 100 0 9.24993
125      7.14899 3 4 100 0 2.79253
126      51.0917 1 2 100 1136.67 4.36332
127      7.14899 3 4 100 0 10.1226
128      7.14899 3 4 100 0 3.66519
129      51.0917 1 2 100 1136.67 5.23599
130      7.14899 3 4 100 0 10.9953
131      7.14899 3 4 100 0 4.53786
132      51.0917 1 2 100 1136.67 6.10865
133      7.14899 3 4 100 0 11.8679
134      7.14899 3 4 100 0 5.41052
135      51.0917 1 2 100 1136.67 6.98132
136      7.14899 3 4 100 0 12.7406
137      7.14899 3 4 100 0 6.28319
138      51.0917 1 2 100 1136.67 7.85398
139      7.14899 3 4 100 0 13.6133
140      7.14899 3 4 100 0 7.15585
141      51.0917 1 2 100 1136.67 8.72665
142      7.14899 3 4 100 0 14.4859
143      4.34414 3 4 100 0 -0.698132
144      80.8951 1 2 100 2962.99 0.872665
145      4.34414 3 4 100 0 4.32525
146      4.34414 3 4 100 0 0.174533
147      80.8951 1 2 100 2962.99 1.74533
148      4.34414 3 4 100 0 5.19791
149      4.34414 3 4 100 0 1.0472
150      80.8951 1 2 100 2962.99 2.61799
151      4.34414 3 4 100 0 6.07058
152      4.34414 3 4 100 0 1.91986
153      80.8951 1 2 100 2962.99 3.49066
154      4.34414 3 4 100 0 6.94324
155      4.34414 3 4 100 0 2.79253
156      80.8951 1 2 100 2962.99 4.36332
157      4.34414 3 4 100 0 7.81591
158      4.34414 3 4 100 0 3.66519
159      80.8951 1 2 100 2962.99 5.23599
160      4.34414 3 4 100 0 8.68857
161      4.34414 3 4 100 0 4.53786
162      80.8951 1 2 100 2962.99 6.10865
163      4.34414 3 4 100 0 9.56124
164      4.34414 3 4 100 0 5.41052
165      80.8951 1 2 100 2962.99 6.98132
166      4.34414 3 4 100 0 10.4339
167      4.34414 3 4 100 0 6.28319
168      80.8951 1 2 100 2962.99 7.85398
169      4.34414 3 4 100 0 11.3066
170      4.34414 3 4 100 0 7.15585
171      80.8951 1 2 100 2962.99 8.72665
172      4.34414 3 4 100 0 12.1792
173      3.54903 3 4 100 0 -0.698132
174      80.8951 1 2 100 3627.11 0.872665
175      3.54903 3 4 100 0 6.91365
176      3.54903 3 4 100 0 0.174533
177      80.8951 1 2 100 3627.11 1.74533
178      3.54903 3 4 100 0 7.78631
179      3.54903 3 4 100 0 1.0472
180      80.8951 1 2 100 3627.11 2.61799
181      3.54903 3 4 100 0 8.65897
182      3.54903 3 4 100 0 1.91986
183      80.8951 1 2 100 3627.11 3.49066
184      3.54903 3 4 100 0 9.53164
185      3.54903 3 4 100 0 2.79253
186      80.8951 1 2 100 3627.11 4.36332
187      3.54903 3 4 100 0 10.4043
188      3.54903 3 4 100 0 3.66519
189      80.8951 1 2 100 3627.11 5.23599
190      3.54903 3 4 100 0 11.277
191      3.54903 3 4 100 0 4.53786
192      80.8951 1 2 100 3627.11 6.10865
193      3.54903 3 4 100 0 12.1496
194      3.54903 3 4 100 0 5.41052
195      80.8951 1 2 100 3627.11 6.98132
196      3.54903 3 4 100 0 13.0223
197      3.54903 3 4 100 0 6.28319
198      80.8951 1 2 100 3627.11 7.85398
199      3.54903 3 4 100 0 13.895
200      3.54903 3 4 100 0 7.15585
201      80.8951 1 2 100 3627.11 8.72665
202      3.54903 3 4 100 0 14.7676
203      38.3187 1 2 100 6385.77 0.872665
204      38.3187 1 2 100 6385.77 1.74533
205      55.3493 1 2 100 3652.66 0.872665
206      55.3493 1 2 100 3652.66 1.74533
207      55.3493 1 2 100 3652.66 2.61799
208      55.3493 1 2 100 3652.66 3.49066
209      55.3493 1 2 100 3652.66 4.36332
210      55.3493 1 2 100 3652.66 5.23599
211      55.3493 1 2 100 3652.66 6.10865
212      55.3493 1 2 100 3652.66 6.98132
213      55.3493 1 2 100 3652.66 7.85398
214      55.3493 1 2 100 3652.66 8.72665
215        3.732 3 4 100 0 -0.698132
216      59.6069 1 2 100 2541.53 0.872665
217        3.732 3 4 100 0 3.4076
218        3.732 3 4 100 0 0.174533
219      59.6069 1 2 100 2541.53 1.74533
220        3.732 3 4 100 0 4.28026
221        3.732 3 4 100 0 1.0472
222      59.6069 1 2 100 2541.53 2.61799
223        3.732 3 4 100 0 5.15293
224        3.732 3 4 100 0 1.91986
225      59.6069 1 2 100 2541.53 3.49066
226        3.732 3 4 100 0 6.02559
227        3.732 3 4 100 0 2.79253
228      59.6069 1 2 100 2541.53 4.36332
229        3.732 3 4 100 0 6.89826
230        3.732 3 4 100 0 3.66519
231      59.6069 1 2 100 2541.53 5.23599
232        3.732 3 4 100 0 7.77092
233        3.732 3 4 100 0 4.53786
234      59.6069 1 2 100 2541.53 6.10865
235        3.732 3 4 100 0 8.64358
236        3.732 3 4 100 0 5.41052
237      59.6069 1 2 100 2541.53 6.98132
238        3.732 3 4 100 0 9.51625
239        3.732 3 4 100 0 6.28319
240      59.6069 1 2 100 2541.53 7.85398
241        3.732 3 4 100 0 10.3889
242        3.732 3 4 100 0 7.15585
243      59.6069 1 2 100 2541.53 8.72665
244        3.732 3 4 100 0 11.2616
245      5.79363 3 4 100 0 -0.698132
246      55.3493 1 2 100 1519.81 0.872665
247      5.79363 3 4 100 0 8.60857
248      5.79363 3 4 100 0 0.174533
249      55.3493 1 2 100 1519.81 1.74533
250      5.79363 3 4 100 0 9.48123
251      5.79363 3 4 100 0 1.0472
252      55.3493 1 2 100 1519.81 2.61799
253      5.79363 3 4 100 0 10.3539
254      5.79363 3 4 100 0 1.91986
255      55.3493 1 2 100 1519.81 3.49066
256      5.79363 3 4 100 0 11.2266
257      5.43967 3 4 100 0 -0.698132
258      51.0917 1 2 100 1494.27 0.872665
259      5.43967 3 4 100 0 5.12576
260      5.43967 3 4 100 0 0.174533
261      51.0917 1 2 100 1494.27 1.74533
262      5.43967 3 4 100 0 5.99842
263      5.43967 3 4 100 0 1.0472
264      51.0917 1 2 100 1494.27 2.61799
265      5.43967 3 4 100 0 6.87109
266      5.43967 3 4 100 0 1.91986
267      51.0917 1 2 100 1494.27 3.49066
268      5.43967 3 4 100 0 7.74375
269      5.43967 3 4 100 0 2.79253
270      51.0917 1 2 100 1494.27 4.36332
271      5.43967 3 4 100 0 8.61642
272      5.43967 3 4 100 0 3.66519
273      51.0917 1 2 100 1494.27 5.23599
274      5.43967 3 4 100 0 9.48908
275      5.43967 3 4 100 0 4.53786
276      51.0917 1 2 100 1494.27 6.10865
277      5.43967 3 4 100 0 10.3617
278      5.43967 3 4 100 0 5.41052
279      51.0917 1 2 100 1494.27 6.98132
280      5.43967 3 4 100 0 11.2344
281      5.43967 3 4 100 0 6.28319
282      51.0917 1 2 100 1494.27 7.85398
283      5.43967 3 4 100 0 12.1071
284      5.43967 3 4 100 0 7.15585
285      51.0917 1 2 100 1494.27 8.72665
286      5.43967 3 4 100 0 12.9797
287      6.56008 3 4 100 0 -0.698132
288      51.0917 1 2 100 1238.84 0.872665
289      6.56008 3 4 100 0 7.9968
290      6.56008 3 4 100 0 0.174533
291      51.0917 1 2 100 1238.84 1.74533
292      6.56008 3 4 100 0 8.86946
293      6.56008 3 4 100 0 1.0472
294      51.0917 1 2 100 1238.84 2.61799
295      6.56008 3 4 100 0 9.74213
296      6.56008 3 4 100 0 1.91986
297      51.0917 1 2 100 1238.84 3.49066
298      6.56008 3 4 100 0 10.6148
299      6.56008 3 4 100 0 2.79253
300      51.0917 1 2 100 1238.84 4.36332
301      6.56008 3 4 100 0 11.4875
302      6.56008 3 4 100 0 3.66519
303      51.0917 1 2 100 1238.84 5.23599
304      6.56008 3 4 100 0 12.3601
305      6.56008 3 4 100 0 4.53786
306      51.0917 1 2 100 1238.84 6.10865
307      6.56008 3 4 100 0 13.2328
308      6.56008 3 4 100 0 5.41052
309      51.0917 1 2 100 1238.84 6.98132
310      6.56008 3 4 100 0 14.1055
311      6.56008 3 4 100 0 6.28319
312      51.0917 1 2 100 1238.84 7.85398
313      6.56008 3 4 100 0 14.9781
314      6.56008 3 4 100 0 7.15585
315      51.0917 1 2 100 1238.84 8.72665
316      6.56008 3 4 100 0 15.8508
317      6.70444 3 4 100 0 -0.698132
318       46.834 1 2 100 1111.12 0.872665
319      6.70444 3 4 100 0 3.14913
320      6.70444 3 4 100 0 0.174533
321       46.834 1 2 100 1111.12 1.74533
322      6.70444 3 4 100 0 4.0218
323      6.70444 3 4 100 0 1.0472
324       46.834 1 2 100 1111.12 2.61799
325      6.70444 3 4 100 0 4.89446
326      6.70444 3 4 100 0 1.91986
327       46.834 1 2 100 1111.12 3.49066
328      6.70444 3 4 100 0 5.76713
329      6.70444 3 4 100 0 2.79253
330       46.834 1 2 100 1111.12 4.36332
331      6.70444 3 4 100 0 6.63979
332      6.70444 3 4 100 0 3.66519
333       46.834 1 2 100 1111.12 5.23599
334      6.70444 3 4 100 0 7.51245
335      6.70444 3 4 100 0 4.53786
336       46.834 1 2 100 1111.12 6.10865
337      6.70444 3 4 100 0 8.38512
338      6.70444 3 4 100 0 5.41052
339       46.834 1 2 100 1111.12 6.98132
340      6.70444 3 4 100 0 9.25778
341      6.70444 3 4 100 0 6.28319
342       46.834 1 2 100 1111.12 7.85398
343      6.70444 3 4 100 0 10.1304
344      6.70444 3 4 100 0 7.15585
345       46.834 1 2 100 1111.12 8.72665
346      6.70444 3 4 100 0 11.0031
347      11.1826 3 4 100 0 -0.698132
348      80.8951 1 2 100 1149.44 0.872665
349      11.1826 3 4 100 0 8.37334
350      11.1826 3 4 100 0 0.174533
351      80.8951 1 2 100 1149.44 1.74533
352      11.1826 3 4 100 0 9.24601
353      11.1826 3 4 100 0 1.0472
354      80.8951 1 2 100 1149.44 2.61799
355      11.1826 3 4 100 0 10.1187
356      11.1826 3 4 100 0 1.91986
357      80.8951 1 2 100 1149.44 3.49066
358      11.1826 3 4 100 0 10.9913
359      11.1826 3 4 100 0 2.79253
360      80.8951 1 2 100 1149.44 4.36332
361      11.1826 3 4 100 0 11.864
362      11.1826 3 4 100 0 3.66519
363      80.8951 1 2 100 1149.44 5.23599
364      11.1826 3 4 100 0 12.7367
365      11.1826 3 4 100 0 4.53786
366      80.8951 1 2 100 1149.44 6.10865
367      11.1826 3 4 100 0 13.6093
368      11.1826 3 4 100 0 5.41052
369      80.8951 1 2 100 1149.44 6.98132
370      11.1826 3 4 100 0 14.482
371      11.1826 3 4 100 0 6.28319
372      80.8951 1 2 100 1149.44 7.85398
373      11.1826 3 4 100 0 15.3547
374      11.1826 3 4 100 0 7.15585
375      80.8951 1 2 100 1149.44 8.72665
376      11.1826 3 4 100 0 16.2273
377      38.3187 1 2 100 6372.99 0.872665
378      38.3187 1 2 100 6372.99 1.74533
379      63.8646 1 2 100 4546.66 0.872665
380      63.8646 1 2 100 4546.66 1.74533
381      63.8646 1 2 100 4546.66 2.61799
382      63.8646 1 2 100 4546.66 3.49066
383      63.8646 1 2 100 4546.66 4.36332
384      63.8646 1 2 100 4546.66 5.23599
385      63.8646 1 2 100 4546.66 6.10865
386      63.8646 1 2 100 4546.66 6.98132
387      63.8646 1 2 100 4546.66 7.85398
388      63.8646 1 2 100 4546.66 8.72665
389      80.8951 1 2 100 6385.77 0.872665
390      80.8951 1 2 100 6385.77 1.74533
391      80.8951 1 2 100 6385.77 2.61799
392      80.8951 1 2 100 6385.77 3.49066
393      80.8951 1 2 100 6385.77 4.36332
394      80.8951 1 2 100 6385.77 5.23599
395      80.8951 1 2 100 6385.77 6.10865
396      80.8951 1 2 100 6385.77 6.98132
397      80.8951 1 2 100 6385.77 7.85398
398      80.8951 1 2 100 6385.77 8.72665
399      9.96804 3 4 100 0 -0.698132
400      80.8951 1 2 100 1289.92 0.872665
401      9.96804 3 4 100 0 8.67923
402      9.96804 3 4 100 0 0.174533
403      80.8951 1 2 100 1289.92 1.74533
404      9.96804 3 4 100 0 9.55189
405      9.96804 3 4 100 0 1.0472
406      80.8951 1 2 100 1289.92 2.61799
407      9.96804 3 4 100 0 10.4246
408      9.96804 3 4 100 0 1.91986
409      80.8951 1 2 100 1289.92 3.49066
410      9.96804 3 4 100 0 11.2972
411      9.96804 3 4 100 0 2.79253
412      80.8951 1 2 100 1289.92 4.36332
413      9.96804 3 4 100 0 12.1699
414      6.82498 3 4 100 0 -0.698132
415      55.3493 1 2 100 1289.92 0.872665
416      6.82498 3 4 100 0 8.67923
417      6.82498 3 4 100 0 0.174533
418      55.3493 1 2 100 1289.92 1.74533
419      6.82498 3 4 100 0 9.55189
420      6.82498 3 4 100 0 1.0472
421      55.3493 1 2 100 1289.92 2.61799
422      6.82498 3 4 100 0 10.4246
423      63.8646 1 2 100 4482.81 0.872665
424      63.8646 1 2 100 4482.81 1.74533
425      63.8646 1 2 100 4482.81 2.61799
426      63.8646 1 2 100 4482.81 3.49066
427      63.8646 1 2 100 4482.81 4.36332
428      63.8646 1 2 100 4482.81 5.23599
429      63.8646 1 2 100 4482.81 6.10865
430      63.8646 1 2 100 4482.81 6.98132
431      63.8646 1 2 100 4482.81 7.85398
432      63.8646 1 2 100 4482.81 8.72665
433       6.7692 3 4 100 0 -0.698132
434      51.0917 1 2 100 1200.52 0.872665
435       6.7692 3 4 100 0 2.77259
436       6.7692 3 4 100 0 0.174533
437      51.0917 1 2 100 1200.52 1.74533
438       6.7692 3 4 100 0 3.64525
439       6.7692 3 4 100 0 1.0472
440      51.0917 1 2 100 1200.52 2.61799
441       6.7692 3 4 100 0 4.51792
442       6.7692 3 4 100 0 1.91986
443      51.0917 1 2 100 1200.52 3.49066
444       6.7692 3 4 100 0 5.39058
445       6.7692 3 4 100 0 2.79253
446      51.0917 1 2 100 1200.52 4.36332
447       6.7692 3 4 100 0 6.26325
448       6.7692 3 4 100 0 3.66519
449      51.0917 1 2 100 1200.52 5.23599
450       6.7692 3 4 100 0 7.13591
451       6.7692 3 4 100 0 4.53786
452      51.0917 1 2 100 1200.52 6.10865
453       6.7692 3 4 100 0 8.00857
454       6.7692 3 4 100 0 5.41052
455      51.0917 1 2 100 1200.52 6.98132
456       6.7692 3 4 100 0 8.88124
457       6.7692 3 4 100 0 6.28319
458      51.0917 1 2 100 1200.52 7.85398
459       6.7692 3 4 100 0 9.7539
460       6.7692 3 4 100 0 7.15585
461      51.0917 1 2 100 1200.52 8.72665
462       6.7692 3 4 100 0 10.6266
463      38.3187 1 2 100 6360.22 0.872665
464      38.3187 1 2 100 6360.22 1.74533
465      2.89649 3 4 100 0 -0.698132
466      80.8951 1 2 100 4444.49 0.872665
467      2.89649 3 4 100 0 5.26614
468      2.89649 3 4 100 0 0.174533
469      80.8951 1 2 100 4444.49 1.74533
470      2.89649 3 4 100 0 6.13881
471      2.89649 3 4 100 0 1.0472
472      80.8951 1 2 100 4444.49 2.61799
473      2.89649 3 4 100 0 7.01147
474      9.68122 3 4 100 0 -0.698132
475      80.8951 1 2 100 1328.24 0.872665
476      9.68122 3 4 100 0 7.62025
477      9.68122 3 4 100 0 0.174533
478      80.8951 1 2 100 1328.24 1.74533
479      9.68122 3 4 100 0 8.49292
480      5.05139 3 4 100 0 -0.698132
481      76.6375 1 2 100 2413.82 0.872665
482      5.05139 3 4 100 0 4.84312
483      5.05139 3 4 100 0 0.174533
484      76.6375 1 2 100 2413.82 1.74533
485      5.05139 3 4 100 0 5.71578
486      5.05139 3 4 100 0 1.0472
487      76.6375 1 2 100 2413.82 2.61799
488      5.05139 3 4 100 0 6.58845
489      5.05139 3 4 100 0 1.91986
490      76.6375 1 2 100 2413.82 3.49066
491      5.05139 3 4 100 0 7.46111
492      12.4203 3 4 100 0 -0.698132
493      80.8951 1 2 100 1034.49 0.872665
494      12.4203 3 4 100 0 5.26708
495      12.4203 3 4 100 0 0.174533
496      80.8951 1 2 100 1034.49 1.74533
497      12.4203 3 4 100 0 6.13975
498      12.4203 3 4 100 0 1.0472
499      80.8951 1 2 100 1034.49 2.61799
500      12.4203 3 4 100 0 7.01241
501      12.4203 3 4 100 0 1.91986
502      80.8951 1 2 100 1034.49 3.49066
503      12.4203 3 4 100 0 7.88507
504      12.4203 3 4 100 0 2.79253
505      80.8951 1 2 100 1034.49 4.36332
506      12.4203 3 4 100 0 8.75774
507      12.4203 3 4 100 0 3.66519
508      80.8951 1 2 100 1034.49 5.23599
509      12.4203 3 4 100 0 9.6304
510      12.4203 3 4 100 0 4.53786
511      80.8951 1 2 100 1034.49 6.10865
512      12.4203 3 4 100 0 10.5031
513      12.4203 3 4 100 0 5.41052
514      80.8951 1 2 100 1034.49 6.98132
515      12.4203 3 4 100 0 11.3757
516      12.4203 3 4 100 0 6.28319
517      80.8951 1 2 100 1034.49 7.85398
518      12.4203 3 4 100 0 12.2484
519      12.4203 3 4 100 0 7.15585
520      80.8951 1 2 100 1034.49 8.72665
521      12.4203 3 4 100 0 13.1211
522      3.06906 3 4 100 0 -0.698132
523      59.6069 1 2 100 3090.71 0.872665
524      3.06906 3 4 100 0 2.88973
525      3.06906 3 4 100 0 0.174533
526      59.6069 1 2 100 3090.71 1.74533
527      3.06906 3 4 100 0 3.7624
528      3.06906 3 4 100 0 1.0472
529      59.6069 1 2 100 3090.71 2.61799
530      3.06906 3 4 100 0 4.63506
531      3.06906 3 4 100 0 1.91986
532      59.6069 1 2 100 3090.71 3.49066
533      3.06906 3 4 100 0 5.50772
534      3.06906 3 4 100 0 2.79253
535      59.6069 1 2 100 3090.71 4.36332
