# Pulseq sequence file
# Created by PyPulseq

[VERSION]
major 1
minor 3
revision 1post1

[DEFINITIONS]
b1 1.1 1.9 1.9 0.9 1.9 1.1 1.5 1.9 1.9 0.9 
offsets_ppm 9.1 8.9 50 50 11.5 8.6 20.7 50 50 50 
tsat 1.5 2 2 0.4 0.5 2 2 2 1.7 0.4 
trec 4.5 3.5 4.5 3.5 4.5 3.9 3.5 4.4 4.5 3.5 
tp 0.1 
td 0.1 
dcsat 0.5 
n_pulses 8 10 10 2 3 10 10 10 9 2 
gamma_hz 42.5763823 
freq 127.7153 
b0 2.99967477 
spoiling 1 
seq_id_string loas_mtc_10 

# Format of blocks:
#  #  D RF  GX  GY  GZ ADC EXT
[BLOCKS]
  1  0  1   0   0   0  0  0
  2  1  0   0   0   0  0  0
  3  0  2   0   0   0  0  0
  4  1  0   0   0   0  0  0
  5  0  3   0   0   0  0  0
  6  2  0   0   0   0  0  0
  7  0  4   0   0   0  0  0
  8  1  0   0   0   0  0  0
  9  0  5   0   0   0  0  0
 10  1  0   0   0   0  0  0
 11  0  6   0   0   0  0  0
 12  2  0   0   0   0  0  0
 13  0  7   0   0   0  0  0
 14  1  0   0   0   0  0  0
 15  0  8   0   0   0  0  0
 16  1  0   0   0   0  0  0
 17  0  9   0   0   0  0  0
 18  2  0   0   0   0  0  0
 19  0 10   0   0   0  0  0
 20  1  0   0   0   0  0  0
 21  0 11   0   0   0  0  0
 22  1  0   0   0   0  0  0
 23  0 12   0   0   0  0  0
 24  2  0   0   0   0  0  0
 25  0 13   0   0   0  0  0
 26  1  0   0   0   0  0  0
 27  0 14   0   0   0  0  0
 28  1  0   0   0   0  0  0
 29  0 15   0   0   0  0  0
 30  2  0   0   0   0  0  0
 31  0 16   0   0   0  0  0
 32  1  0   0   0   0  0  0
 33  0 17   0   0   0  0  0
 34  1  0   0   0   0  0  0
 35  0 18   0   0   0  0  0
 36  2  0   0   0   0  0  0
 37  0 19   0   0   0  0  0
 38  1  0   0   0   0  0  0
 39  0 20   0   0   0  0  0
 40  1  0   0   0   0  0  0
 41  0 21   0   0   0  0  0
 42  2  0   0   0   0  0  0
 43  0 22   0   0   0  0  0
 44  1  0   0   0   0  0  0
 45  0 23   0   0   0  0  0
 46  1  0   0   0   0  0  0
 47  0 24   0   0   0  0  0
 48  3  0   0   0   0  0  0
 49  0  0   1   1   1  0  0
 50  3  0   0   0   0  0  0
 51  0  0   0   0   0  1  0
 52  4  0   0   0   0  0  0
 53  0 25   0   0   0  0  0
 54  1  0   0   0   0  0  0
 55  0 26   0   0   0  0  0
 56  1  0   0   0   0  0  0
 57  0 27   0   0   0  0  0
 58  2  0   0   0   0  0  0
 59  0 28   0   0   0  0  0
 60  1  0   0   0   0  0  0
 61  0 29   0   0   0  0  0
 62  1  0   0   0   0  0  0
 63  0 30   0   0   0  0  0
 64  2  0   0   0   0  0  0
 65  0 31   0   0   0  0  0
 66  1  0   0   0   0  0  0
 67  0 32   0   0   0  0  0
 68  1  0   0   0   0  0  0
 69  0 33   0   0   0  0  0
 70  2  0   0   0   0  0  0
 71  0 34   0   0   0  0  0
 72  1  0   0   0   0  0  0
 73  0 35   0   0   0  0  0
 74  1  0   0   0   0  0  0
 75  0 36   0   0   0  0  0
 76  2  0   0   0   0  0  0
 77  0 37   0   0   0  0  0
 78  1  0   0   0   0  0  0
 79  0 38   0   0   0  0  0
 80  1  0   0   0   0  0  0
 81  0 39   0   0   0  0  0
 82  2  0   0   0   0  0  0
 83  0 40   0   0   0  0  0
 84  1  0   0   0   0  0  0
 85  0 41   0   0   0  0  0
 86  1  0   0   0   0  0  0
 87  0 42   0   0   0  0  0
 88  2  0   0   0   0  0  0
 89  0 43   0   0   0  0  0
 90  1  0   0   0   0  0  0
 91  0 44   0   0   0  0  0
 92  1  0   0   0   0  0  0
 93  0 45   0   0   0  0  0
 94  2  0   0   0   0  0  0
 95  0 46   0   0   0  0  0
 96  1  0   0   0   0  0  0
 97  0 47   0   0   0  0  0
 98  1  0   0   0   0  0  0
 99  0 48   0   0   0  0  0
100  2  0   0   0   0  0  0
101  0 49   0   0   0  0  0
102  1  0   0   0   0  0  0
103  0 50   0   0   0  0  0
104  1  0   0   0   0  0  0
105  0 51   0   0   0  0  0
106  2  0   0   0   0  0  0
107  0 52   0   0   0  0  0
108  1  0   0   0   0  0  0
109  0 53   0   0   0  0  0
110  1  0   0   0   0  0  0
111  0 54   0   0   0  0  0
112  3  0   0   0   0  0  0
113  0  0   1   1   1  0  0
114  3  0   0   0   0  0  0
115  0  0   0   0   0  1  0
116  5  0   0   0   0  0  0
117  6  0   0   0   0  0  0
118  0 55   0   0   0  0  0
119  6  0   0   0   0  0  0
120  2  0   0   0   0  0  0
121  6  0   0   0   0  0  0
122  0 56   0   0   0  0  0
123  6  0   0   0   0  0  0
124  2  0   0   0   0  0  0
125  6  0   0   0   0  0  0
126  0 57   0   0   0  0  0
127  6  0   0   0   0  0  0
128  2  0   0   0   0  0  0
129  6  0   0   0   0  0  0
130  0 58   0   0   0  0  0
131  6  0   0   0   0  0  0
132  2  0   0   0   0  0  0
133  6  0   0   0   0  0  0
134  0 59   0   0   0  0  0
135  6  0   0   0   0  0  0
136  2  0   0   0   0  0  0
137  6  0   0   0   0  0  0
138  0 60   0   0   0  0  0
139  6  0   0   0   0  0  0
140  2  0   0   0   0  0  0
141  6  0   0   0   0  0  0
142  0 61   0   0   0  0  0
143  6  0   0   0   0  0  0
144  2  0   0   0   0  0  0
145  6  0   0   0   0  0  0
146  0 62   0   0   0  0  0
147  6  0   0   0   0  0  0
148  2  0   0   0   0  0  0
149  6  0   0   0   0  0  0
150  0 63   0   0   0  0  0
151  6  0   0   0   0  0  0
152  2  0   0   0   0  0  0
153  6  0   0   0   0  0  0
154  0 64   0   0   0  0  0
155  6  0   0   0   0  0  0
156  3  0   0   0   0  0  0
157  0  0   1   1   1  0  0
158  3  0   0   0   0  0  0
159  0  0   0   0   0  1  0
160  4  0   0   0   0  0  0
161  6  0   0   0   0  0  0
162  0 65   0   0   0  0  0
163  6  0   0   0   0  0  0
164  2  0   0   0   0  0  0
165  6  0   0   0   0  0  0
166  0 66   0   0   0  0  0
167  6  0   0   0   0  0  0
168  3  0   0   0   0  0  0
169  0  0   1   1   1  0  0
170  3  0   0   0   0  0  0
171  0  0   0   0   0  1  0
172  5  0   0   0   0  0  0
173  0 67   0   0   0  0  0
174  1  0   0   0   0  0  0
175  0 68   0   0   0  0  0
176  1  0   0   0   0  0  0
177  0 69   0   0   0  0  0
178  2  0   0   0   0  0  0
179  0 70   0   0   0  0  0
180  1  0   0   0   0  0  0
181  0 71   0   0   0  0  0
182  1  0   0   0   0  0  0
183  0 72   0   0   0  0  0
184  2  0   0   0   0  0  0
185  0 73   0   0   0  0  0
186  1  0   0   0   0  0  0
187  0 74   0   0   0  0  0
188  1  0   0   0   0  0  0
189  0 75   0   0   0  0  0
190  3  0   0   0   0  0  0
191  0  0   1   1   1  0  0
192  3  0   0   0   0  0  0
193  0  0   0   0   0  1  0
194  4  0   0   0   0  0  0
195  0 76   0   0   0  0  0
196  1  0   0   0   0  0  0
197  0 77   0   0   0  0  0
198  1  0   0   0   0  0  0
199  0 78   0   0   0  0  0
200  2  0   0   0   0  0  0
201  0 79   0   0   0  0  0
202  1  0   0   0   0  0  0
203  0 80   0   0   0  0  0
204  1  0   0   0   0  0  0
205  0 81   0   0   0  0  0
206  2  0   0   0   0  0  0
207  0 82   0   0   0  0  0
208  1  0   0   0   0  0  0
209  0 83   0   0   0  0  0
210  1  0   0   0   0  0  0
211  0 84   0   0   0  0  0
212  2  0   0   0   0  0  0
213  0 85   0   0   0  0  0
214  1  0   0   0   0  0  0
215  0 86   0   0   0  0  0
216  1  0   0   0   0  0  0
217  0 87   0   0   0  0  0
218  2  0   0   0   0  0  0
219  0 88   0   0   0  0  0
220  1  0   0   0   0  0  0
221  0 89   0   0   0  0  0
222  1  0   0   0   0  0  0
223  0 90   0   0   0  0  0
224  2  0   0   0   0  0  0
225  0 91   0   0   0  0  0
226  1  0   0   0   0  0  0
227  0 92   0   0   0  0  0
228  1  0   0   0   0  0  0
229  0 93   0   0   0  0  0
230  2  0   0   0   0  0  0
231  0 94   0   0   0  0  0
232  1  0   0   0   0  0  0
233  0 95   0   0   0  0  0
234  1  0   0   0   0  0  0
235  0 96   0   0   0  0  0
236  2  0   0   0   0  0  0
237  0 97   0   0   0  0  0
238  1  0   0   0   0  0  0
239  0 98   0   0   0  0  0
240  1  0   0   0   0  0  0
241  0 99   0   0   0  0  0
242  2  0   0   0   0  0  0
243  0 100   0   0   0  0  0
244  1  0   0   0   0  0  0
245  0 101   0   0   0  0  0
246  1  0   0   0   0  0  0
247  0 102   0   0   0  0  0
248  2  0   0   0   0  0  0
249  0 103   0   0   0  0  0
250  1  0   0   0   0  0  0
251  0 104   0   0   0  0  0
252  1  0   0   0   0  0  0
253  0 105   0   0   0  0  0
254  3  0   0   0   0  0  0
255  0  0   1   1   1  0  0
256  3  0   0   0   0  0  0
257  0  0   0   0   0  1  0
258  7  0   0   0   0  0  0
259  0 106   0   0   0  0  0
260  1  0   0   0   0  0  0
261  0 107   0   0   0  0  0
262  1  0   0   0   0  0  0
263  0 108   0   0   0  0  0
264  2  0   0   0   0  0  0
265  0 109   0   0   0  0  0
266  1  0   0   0   0  0  0
267  0 110   0   0   0  0  0
268  1  0   0   0   0  0  0
269  0 111   0   0   0  0  0
270  2  0   0   0   0  0  0
271  0 112   0   0   0  0  0
272  1  0   0   0   0  0  0
273  0 113   0   0   0  0  0
274  1  0   0   0   0  0  0
275  0 114   0   0   0  0  0
276  2  0   0   0   0  0  0
277  0 115   0   0   0  0  0
278  1  0   0   0   0  0  0
279  0 116   0   0   0  0  0
280  1  0   0   0   0  0  0
281  0 117   0   0   0  0  0
282  2  0   0   0   0  0  0
283  0 118   0   0   0  0  0
284  1  0   0   0   0  0  0
285  0 119   0   0   0  0  0
286  1  0   0   0   0  0  0
287  0 120   0   0   0  0  0
288  2  0   0   0   0  0  0
289  0 121   0   0   0  0  0
290  1  0   0   0   0  0  0
291  0 122   0   0   0  0  0
292  1  0   0   0   0  0  0
293  0 123   0   0   0  0  0
294  2  0   0   0   0  0  0
295  0 124   0   0   0  0  0
296  1  0   0   0   0  0  0
297  0 125   0   0   0  0  0
298  1  0   0   0   0  0  0
299  0 126   0   0   0  0  0
300  2  0   0   0   0  0  0
301  0 127   0   0   0  0  0
302  1  0   0   0   0  0  0
303  0 128   0   0   0  0  0
304  1  0   0   0   0  0  0
305  0 129   0   0   0  0  0
306  2  0   0   0   0  0  0
307  0 130   0   0   0  0  0
308  1  0   0   0   0  0  0
309  0 131   0   0   0  0  0
310  1  0   0   0   0  0  0
311  0 132   0   0   0  0  0
312  2  0   0   0   0  0  0
313  0 133   0   0   0  0  0
314  1  0   0   0   0  0  0
315  0 134   0   0   0  0  0
316  1  0   0   0   0  0  0
317  0 135   0   0   0  0  0
318  3  0   0   0   0  0  0
319  0  0   1   1   1  0  0
320  3  0   0   0   0  0  0
321  0  0   0   0   0  1  0
322  5  0   0   0   0  0  0
323  6  0   0   0   0  0  0
324  0 55   0   0   0  0  0
325  6  0   0   0   0  0  0
326  2  0   0   0   0  0  0
327  6  0   0   0   0  0  0
328  0 56   0   0   0  0  0
329  6  0   0   0   0  0  0
330  2  0   0   0   0  0  0
331  6  0   0   0   0  0  0
332  0 57   0   0   0  0  0
333  6  0   0   0   0  0  0
334  2  0   0   0   0  0  0
335  6  0   0   0   0  0  0
336  0 58   0   0   0  0  0
337  6  0   0   0   0  0  0
338  2  0   0   0   0  0  0
339  6  0   0   0   0  0  0
340  0 59   0   0   0  0  0
341  6  0   0   0   0  0  0
342  2  0   0   0   0  0  0
343  6  0   0   0   0  0  0
344  0 60   0   0   0  0  0
345  6  0   0   0   0  0  0
346  2  0   0   0   0  0  0
347  6  0   0   0   0  0  0
348  0 61   0   0   0  0  0
349  6  0   0   0   0  0  0
350  2  0   0   0   0  0  0
351  6  0   0   0   0  0  0
352  0 62   0   0   0  0  0
353  6  0   0   0   0  0  0
354  2  0   0   0   0  0  0
355  6  0   0   0   0  0  0
356  0 63   0   0   0  0  0
357  6  0   0   0   0  0  0
358  2  0   0   0   0  0  0
359  6  0   0   0   0  0  0
360  0 64   0   0   0  0  0
361  6  0   0   0   0  0  0
362  3  0   0   0   0  0  0
363  0  0   1   1   1  0  0
364  3  0   0   0   0  0  0
365  0  0   0   0   0  1  0
366  8  0   0   0   0  0  0
367  6  0   0   0   0  0  0
368  0 55   0   0   0  0  0
369  6  0   0   0   0  0  0
370  2  0   0   0   0  0  0
371  6  0   0   0   0  0  0
372  0 56   0   0   0  0  0
373  6  0   0   0   0  0  0
374  2  0   0   0   0  0  0
375  6  0   0   0   0  0  0
376  0 57   0   0   0  0  0
377  6  0   0   0   0  0  0
378  2  0   0   0   0  0  0
379  6  0   0   0   0  0  0
380  0 58   0   0   0  0  0
381  6  0   0   0   0  0  0
382  2  0   0   0   0  0  0
383  6  0   0   0   0  0  0
384  0 59   0   0   0  0  0
385  6  0   0   0   0  0  0
386  2  0   0   0   0  0  0
387  6  0   0   0   0  0  0
388  0 60   0   0   0  0  0
389  6  0   0   0   0  0  0
390  2  0   0   0   0  0  0
391  6  0   0   0   0  0  0
392  0 61   0   0   0  0  0
393  6  0   0   0   0  0  0
394  2  0   0   0   0  0  0
395  6  0   0   0   0  0  0
396  0 62   0   0   0  0  0
397  6  0   0   0   0  0  0
398  2  0   0   0   0  0  0
399  6  0   0   0   0  0  0
400  0 63   0   0   0  0  0
401  6  0   0   0   0  0  0
402  3  0   0   0   0  0  0
403  0  0   1   1   1  0  0
404  3  0   0   0   0  0  0
405  0  0   0   0   0  1  0
406  4  0   0   0   0  0  0
407  6  0   0   0   0  0  0
408  0 65   0   0   0  0  0
409  6  0   0   0   0  0  0
410  2  0   0   0   0  0  0
411  6  0   0   0   0  0  0
412  0 66   0   0   0  0  0
413  6  0   0   0   0  0  0
414  3  0   0   0   0  0  0
415  0  0   1   1   1  0  0
416  3  0   0   0   0  0  0
417  0  0   0   0   0  1  0

# Format of RF events:
# id amplitude mag_id phase_id delay freq phase
# ..        Hz   ....     ....    us   Hz   rad
[RF]
1      6.41006 1 2 100 0 -0.698132
2       46.834 3 4 100 1162.21 0.872665
3      6.41006 1 2 100 0 3.83156
4      6.41006 1 2 100 0 0.174533
5       46.834 3 4 100 1162.21 1.74533
6      6.41006 1 2 100 0 4.70423
7      6.41006 1 2 100 0 1.0472
8       46.834 3 4 100 1162.21 2.61799
9      6.41006 1 2 100 0 5.57689
10      6.41006 1 2 100 0 1.91986
11       46.834 3 4 100 1162.21 3.49066
12      6.41006 1 2 100 0 6.44955
13      6.41006 1 2 100 0 2.79253
14       46.834 3 4 100 1162.21 4.36332
15      6.41006 1 2 100 0 7.32222
16      6.41006 1 2 100 0 3.66519
17       46.834 3 4 100 1162.21 5.23599
18      6.41006 1 2 100 0 8.19488
19      6.41006 1 2 100 0 4.53786
20       46.834 3 4 100 1162.21 6.10865
21      6.41006 1 2 100 0 9.06755
22      6.41006 1 2 100 0 5.41052
23       46.834 3 4 100 1162.21 6.98132
24      6.41006 1 2 100 0 9.94021
25      11.3078 1 2 100 0 -0.698132
26      80.8951 3 4 100 1136.67 0.872665
27      11.3078 1 2 100 0 6.63194
28      11.3078 1 2 100 0 0.174533
29      80.8951 3 4 100 1136.67 1.74533
30      11.3078 1 2 100 0 7.5046
31      11.3078 1 2 100 0 1.0472
32      80.8951 3 4 100 1136.67 2.61799
33      11.3078 1 2 100 0 8.37727
34      11.3078 1 2 100 0 1.91986
35      80.8951 3 4 100 1136.67 3.49066
36      11.3078 1 2 100 0 9.24993
37      11.3078 1 2 100 0 2.79253
38      80.8951 3 4 100 1136.67 4.36332
39      11.3078 1 2 100 0 10.1226
40      11.3078 1 2 100 0 3.66519
41      80.8951 3 4 100 1136.67 5.23599
42      11.3078 1 2 100 0 10.9953
43      11.3078 1 2 100 0 4.53786
44      80.8951 3 4 100 1136.67 6.10865
45      11.3078 1 2 100 0 11.8679
46      11.3078 1 2 100 0 5.41052
47      80.8951 3 4 100 1136.67 6.98132
48      11.3078 1 2 100 0 12.7406
49      11.3078 1 2 100 0 6.28319
50      80.8951 3 4 100 1136.67 7.85398
51      11.3078 1 2 100 0 13.6133
52      11.3078 1 2 100 0 7.15585
53      80.8951 3 4 100 1136.67 8.72665
54      11.3078 1 2 100 0 14.4859
55      80.8951 3 4 100 6385.77 0.872665
56      80.8951 3 4 100 6385.77 1.74533
57      80.8951 3 4 100 6385.77 2.61799
58      80.8951 3 4 100 6385.77 3.49066
59      80.8951 3 4 100 6385.77 4.36332
60      80.8951 3 4 100 6385.77 5.23599
61      80.8951 3 4 100 6385.77 6.10865
62      80.8951 3 4 100 6385.77 6.98132
63      80.8951 3 4 100 6385.77 7.85398
64      80.8951 3 4 100 6385.77 8.72665
65      38.3187 3 4 100 6385.77 0.872665
66      38.3187 3 4 100 6385.77 1.74533
67      8.75716 1 2 100 0 -0.698132
68      80.8951 3 4 100 1468.73 0.872665
69      8.75716 1 2 100 0 7.92614
70      8.75716 1 2 100 0 0.174533
71      80.8951 3 4 100 1468.73 1.74533
72      8.75716 1 2 100 0 8.7988
73      8.75716 1 2 100 0 1.0472
74      80.8951 3 4 100 1468.73 2.61799
75      8.75716 1 2 100 0 9.67147
76       6.7823 1 2 100 0 -0.698132
77       46.834 3 4 100 1098.35 0.872665
78       6.7823 1 2 100 0 7.69091
79       6.7823 1 2 100 0 0.174533
80       46.834 3 4 100 1098.35 1.74533
81       6.7823 1 2 100 0 8.56358
82       6.7823 1 2 100 0 1.0472
83       46.834 3 4 100 1098.35 2.61799
84       6.7823 1 2 100 0 9.43624
85       6.7823 1 2 100 0 1.91986
86       46.834 3 4 100 1098.35 3.49066
87       6.7823 1 2 100 0 10.3089
88       6.7823 1 2 100 0 2.79253
89       46.834 3 4 100 1098.35 4.36332
90       6.7823 1 2 100 0 11.1816
91       6.7823 1 2 100 0 3.66519
92       46.834 3 4 100 1098.35 5.23599
93       6.7823 1 2 100 0 12.0542
94       6.7823 1 2 100 0 4.53786
95       46.834 3 4 100 1098.35 6.10865
96       6.7823 1 2 100 0 12.9269
97       6.7823 1 2 100 0 5.41052
98       46.834 3 4 100 1098.35 6.98132
99       6.7823 1 2 100 0 13.7996
100       6.7823 1 2 100 0 6.28319
101       46.834 3 4 100 1098.35 7.85398
102       6.7823 1 2 100 0 14.6722
103       6.7823 1 2 100 0 7.15585
104       46.834 3 4 100 1098.35 8.72665
105       6.7823 1 2 100 0 15.5449
106      3.84399 1 2 100 0 -0.698132
107      63.8646 3 4 100 2643.71 0.872665
108      3.84399 1 2 100 0 4.77246
109      3.84399 1 2 100 0 0.174533
110      63.8646 3 4 100 2643.71 1.74533
111      3.84399 1 2 100 0 5.64512
112      3.84399 1 2 100 0 1.0472
113      63.8646 3 4 100 2643.71 2.61799
114      3.84399 1 2 100 0 6.51778
115      3.84399 1 2 100 0 1.91986
116      63.8646 3 4 100 2643.71 3.49066
117      3.84399 1 2 100 0 7.39045
118      3.84399 1 2 100 0 2.79253
119      63.8646 3 4 100 2643.71 4.36332
120      3.84399 1 2 100 0 8.26311
121      3.84399 1 2 100 0 3.66519
122      63.8646 3 4 100 2643.71 5.23599
123      3.84399 1 2 100 0 9.13578
124      3.84399 1 2 100 0 4.53786
125      63.8646 3 4 100 2643.71 6.10865
126      3.84399 1 2 100 0 10.0084
127      3.84399 1 2 100 0 5.41052
128      63.8646 3 4 100 2643.71 6.98132
129      3.84399 1 2 100 0 10.8811
130      3.84399 1 2 100 0 6.28319
131      63.8646 3 4 100 2643.71 7.85398
132      3.84399 1 2 100 0 11.7538
133      3.84399 1 2 100 0 7.15585
134      63.8646 3 4 100 2643.71 8.72665
135      3.84399 1 2 100 0 12.6264

# Format of trapezoid gradients:
# id amplitude rise flat fall delay
# ..      Hz/m   us   us   us    us
[TRAP]
 1  1.36244e+06 1000 3500 1000   0

# Format of ADC events:
# id num dwell delay freq phase
# ..  ..    ns    us   Hz   rad
[ADC]
1 1 1000000 0 0 0

# Format of delays:
# id delay (us)
[DELAYS]
1 120
2 97740
3 100
4 4499000
5 3499000
6 1250
7 3899000
8 4399000

# Sequence Shapes
[SHAPES]

shape_id 1
num_samples 1030
1
0
0
997
-1
0
0
27

shape_id 2
num_samples 1030
0
0
1028

shape_id 3
num_samples 100030
1
0
0
99997
-1
0
0
27

shape_id 4
num_samples 100030
0
0
100028

