# Pulseq sequence file
# Created by PyPulseq

[VERSION]
major 1
minor 3
revision 1post1

[DEFINITIONS]
b1 1 1.3 1.7 1.9 1.1 1.4 1.8 1.2 1.3 1.5 1.9 0.9 1.4 1.7 1 1 1.5 1.8 1 1.1 1.7 1.9 1 1.3 1.8 1 1.1 1.4 1.9 1.1 1.3 1 1.3 1 1.4 1.7 1.2 1.1 1.5 1.8 
offsets_ppm 8 8 8 8 9 9 9 9 10 10 10 10 11 11 11 11 13 13 13 13 15 15 15 15 20 20 20 20 25 25 25 25 35 35 35 35 50 50 50 50 
tsat 0.4 0.9 1.3 1.8 1.8 0.4 0.9 1.3 1.3 1.8 0.4 0.9 0.9 1.3 1.8 0.4 0.4 0.9 1.3 1.8 0.6 1.1 1.6 2 2 0.6 1.1 1.6 1.6 2 0.6 1.1 1.1 1.6 2 0.6 0.6 1.1 1.6 2 
trec 3.5 4 4.5 3.6 4.1 4.3 3.5 3.7 4.5 3.6 4.1 4 3.5 4 4.1 3.6 4.1 4.3 3.8 4 4.5 3.6 4.1 4.3 3.5 4 4.5 3.6 4.1 4 3.5 4 4.4 3.6 4.1 4.3 4.5 4 4.5 3.6 
tp 0.1 
td 0.1 
dcsat 0.5 
n_pulses 2 5 7 9 9 2 5 7 7 9 2 5 5 7 9 2 2 5 7 9 3 6 8 10 10 3 6 8 8 10 3 6 6 8 10 3 3 6 8 10 
gamma_hz 42.5763823 
freq 127.7153 
b0 2.99967477 
spoiling 1 
seq_id_string mt_unsuper 

# Format of blocks:
#  #  D RF  GX  GY  GZ ADC EXT
[BLOCKS]
   1  0  1   0   0   0  0  0
   2  1  0   0   0   0  0  0
   3  0  2   0   0   0  0  0
   4  1  0   0   0   0  0  0
   5  0  3   0   0   0  0  0
   6  2  0   0   0   0  0  0
   7  0  4   0   0   0  0  0
   8  1  0   0   0   0  0  0
   9  0  5   0   0   0  0  0
  10  1  0   0   0   0  0  0
  11  0  6   0   0   0  0  0
  12  3  0   0   0   0  0  0
  13  0  0   1   1   1  0  0
  14  3  0   0   0   0  0  0
  15  0  0   0   0   0  1  0
  16  4  0   0   0   0  0  0
  17  0  7   0   0   0  0  0
  18  1  0   0   0   0  0  0
  19  0  8   0   0   0  0  0
  20  1  0   0   0   0  0  0
  21  0  9   0   0   0  0  0
  22  2  0   0   0   0  0  0
  23  0 10   0   0   0  0  0
  24  1  0   0   0   0  0  0
  25  0 11   0   0   0  0  0
  26  1  0   0   0   0  0  0
  27  0 12   0   0   0  0  0
  28  2  0   0   0   0  0  0
  29  0 13   0   0   0  0  0
  30  1  0   0   0   0  0  0
  31  0 14   0   0   0  0  0
  32  1  0   0   0   0  0  0
  33  0 15   0   0   0  0  0
  34  2  0   0   0   0  0  0
  35  0 16   0   0   0  0  0
  36  1  0   0   0   0  0  0
  37  0 17   0   0   0  0  0
  38  1  0   0   0   0  0  0
  39  0 18   0   0   0  0  0
  40  2  0   0   0   0  0  0
  41  0 19   0   0   0  0  0
  42  1  0   0   0   0  0  0
  43  0 20   0   0   0  0  0
  44  1  0   0   0   0  0  0
  45  0 21   0   0   0  0  0
  46  3  0   0   0   0  0  0
  47  0  0   1   1   1  0  0
  48  3  0   0   0   0  0  0
  49  0  0   0   0   0  1  0
  50  5  0   0   0   0  0  0
  51  0 22   0   0   0  0  0
  52  1  0   0   0   0  0  0
  53  0 23   0   0   0  0  0
  54  1  0   0   0   0  0  0
  55  0 24   0   0   0  0  0
  56  2  0   0   0   0  0  0
  57  0 25   0   0   0  0  0
  58  1  0   0   0   0  0  0
  59  0 26   0   0   0  0  0
  60  1  0   0   0   0  0  0
  61  0 27   0   0   0  0  0
  62  2  0   0   0   0  0  0
  63  0 28   0   0   0  0  0
  64  1  0   0   0   0  0  0
  65  0 29   0   0   0  0  0
  66  1  0   0   0   0  0  0
  67  0 30   0   0   0  0  0
  68  2  0   0   0   0  0  0
  69  0 31   0   0   0  0  0
  70  1  0   0   0   0  0  0
  71  0 32   0   0   0  0  0
  72  1  0   0   0   0  0  0
  73  0 33   0   0   0  0  0
  74  2  0   0   0   0  0  0
  75  0 34   0   0   0  0  0
  76  1  0   0   0   0  0  0
  77  0 35   0   0   0  0  0
  78  1  0   0   0   0  0  0
  79  0 36   0   0   0  0  0
  80  2  0   0   0   0  0  0
  81  0 37   0   0   0  0  0
  82  1  0   0   0   0  0  0
  83  0 38   0   0   0  0  0
  84  1  0   0   0   0  0  0
  85  0 39   0   0   0  0  0
  86  2  0   0   0   0  0  0
  87  0 40   0   0   0  0  0
  88  1  0   0   0   0  0  0
  89  0 41   0   0   0  0  0
  90  1  0   0   0   0  0  0
  91  0 42   0   0   0  0  0
  92  3  0   0   0   0  0  0
  93  0  0   1   1   1  0  0
  94  3  0   0   0   0  0  0
  95  0  0   0   0   0  1  0
  96  6  0   0   0   0  0  0
  97  0 43   0   0   0  0  0
  98  1  0   0   0   0  0  0
  99  0 44   0   0   0  0  0
 100  1  0   0   0   0  0  0
 101  0 45   0   0   0  0  0
 102  2  0   0   0   0  0  0
 103  0 46   0   0   0  0  0
 104  1  0   0   0   0  0  0
 105  0 47   0   0   0  0  0
 106  1  0   0   0   0  0  0
 107  0 48   0   0   0  0  0
 108  2  0   0   0   0  0  0
 109  0 49   0   0   0  0  0
 110  1  0   0   0   0  0  0
 111  0 50   0   0   0  0  0
 112  1  0   0   0   0  0  0
 113  0 51   0   0   0  0  0
 114  2  0   0   0   0  0  0
 115  0 52   0   0   0  0  0
 116  1  0   0   0   0  0  0
 117  0 53   0   0   0  0  0
 118  1  0   0   0   0  0  0
 119  0 54   0   0   0  0  0
 120  2  0   0   0   0  0  0
 121  0 55   0   0   0  0  0
 122  1  0   0   0   0  0  0
 123  0 56   0   0   0  0  0
 124  1  0   0   0   0  0  0
 125  0 57   0   0   0  0  0
 126  2  0   0   0   0  0  0
 127  0 58   0   0   0  0  0
 128  1  0   0   0   0  0  0
 129  0 59   0   0   0  0  0
 130  1  0   0   0   0  0  0
 131  0 60   0   0   0  0  0
 132  2  0   0   0   0  0  0
 133  0 61   0   0   0  0  0
 134  1  0   0   0   0  0  0
 135  0 62   0   0   0  0  0
 136  1  0   0   0   0  0  0
 137  0 63   0   0   0  0  0
 138  2  0   0   0   0  0  0
 139  0 64   0   0   0  0  0
 140  1  0   0   0   0  0  0
 141  0 65   0   0   0  0  0
 142  1  0   0   0   0  0  0
 143  0 66   0   0   0  0  0
 144  2  0   0   0   0  0  0
 145  0 67   0   0   0  0  0
 146  1  0   0   0   0  0  0
 147  0 68   0   0   0  0  0
 148  1  0   0   0   0  0  0
 149  0 69   0   0   0  0  0
 150  3  0   0   0   0  0  0
 151  0  0   1   1   1  0  0
 152  3  0   0   0   0  0  0
 153  0  0   0   0   0  1  0
 154  7  0   0   0   0  0  0
 155  0 70   0   0   0  0  0
 156  1  0   0   0   0  0  0
 157  0 71   0   0   0  0  0
 158  1  0   0   0   0  0  0
 159  0 72   0   0   0  0  0
 160  2  0   0   0   0  0  0
 161  0 73   0   0   0  0  0
 162  1  0   0   0   0  0  0
 163  0 74   0   0   0  0  0
 164  1  0   0   0   0  0  0
 165  0 75   0   0   0  0  0
 166  2  0   0   0   0  0  0
 167  0 76   0   0   0  0  0
 168  1  0   0   0   0  0  0
 169  0 77   0   0   0  0  0
 170  1  0   0   0   0  0  0
 171  0 78   0   0   0  0  0
 172  2  0   0   0   0  0  0
 173  0 79   0   0   0  0  0
 174  1  0   0   0   0  0  0
 175  0 80   0   0   0  0  0
 176  1  0   0   0   0  0  0
 177  0 81   0   0   0  0  0
 178  2  0   0   0   0  0  0
 179  0 82   0   0   0  0  0
 180  1  0   0   0   0  0  0
 181  0 83   0   0   0  0  0
 182  1  0   0   0   0  0  0
 183  0 84   0   0   0  0  0
 184  2  0   0   0   0  0  0
 185  0 85   0   0   0  0  0
 186  1  0   0   0   0  0  0
 187  0 86   0   0   0  0  0
 188  1  0   0   0   0  0  0
 189  0 87   0   0   0  0  0
 190  2  0   0   0   0  0  0
 191  0 88   0   0   0  0  0
 192  1  0   0   0   0  0  0
 193  0 89   0   0   0  0  0
 194  1  0   0   0   0  0  0
 195  0 90   0   0   0  0  0
 196  2  0   0   0   0  0  0
 197  0 91   0   0   0  0  0
 198  1  0   0   0   0  0  0
 199  0 92   0   0   0  0  0
 200  1  0   0   0   0  0  0
 201  0 93   0   0   0  0  0
 202  2  0   0   0   0  0  0
 203  0 94   0   0   0  0  0
 204  1  0   0   0   0  0  0
 205  0 95   0   0   0  0  0
 206  1  0   0   0   0  0  0
 207  0 96   0   0   0  0  0
 208  3  0   0   0   0  0  0
 209  0  0   1   1   1  0  0
 210  3  0   0   0   0  0  0
 211  0  0   0   0   0  1  0
 212  8  0   0   0   0  0  0
 213  0 97   0   0   0  0  0
 214  1  0   0   0   0  0  0
 215  0 98   0   0   0  0  0
 216  1  0   0   0   0  0  0
 217  0 99   0   0   0  0  0
 218  2  0   0   0   0  0  0
 219  0 100   0   0   0  0  0
 220  1  0   0   0   0  0  0
 221  0 101   0   0   0  0  0
 222  1  0   0   0   0  0  0
 223  0 102   0   0   0  0  0
 224  3  0   0   0   0  0  0
 225  0  0   1   1   1  0  0
 226  3  0   0   0   0  0  0
 227  0  0   0   0   0  1  0
 228  9  0   0   0   0  0  0
 229  0 103   0   0   0  0  0
 230  1  0   0   0   0  0  0
 231  0 104   0   0   0  0  0
 232  1  0   0   0   0  0  0
 233  0 105   0   0   0  0  0
 234  2  0   0   0   0  0  0
 235  0 106   0   0   0  0  0
 236  1  0   0   0   0  0  0
 237  0 107   0   0   0  0  0
 238  1  0   0   0   0  0  0
 239  0 108   0   0   0  0  0
 240  2  0   0   0   0  0  0
 241  0 109   0   0   0  0  0
 242  1  0   0   0   0  0  0
 243  0 110   0   0   0  0  0
 244  1  0   0   0   0  0  0
 245  0 111   0   0   0  0  0
 246  2  0   0   0   0  0  0
 247  0 112   0   0   0  0  0
 248  1  0   0   0   0  0  0
 249  0 113   0   0   0  0  0
 250  1  0   0   0   0  0  0
 251  0 114   0   0   0  0  0
 252  2  0   0   0   0  0  0
 253  0 115   0   0   0  0  0
 254  1  0   0   0   0  0  0
 255  0 116   0   0   0  0  0
 256  1  0   0   0   0  0  0
 257  0 117   0   0   0  0  0
 258  3  0   0   0   0  0  0
 259  0  0   1   1   1  0  0
 260  3  0   0   0   0  0  0
 261  0  0   0   0   0  1  0
 262  4  0   0   0   0  0  0
 263  0 118   0   0   0  0  0
 264  1  0   0   0   0  0  0
 265  0 119   0   0   0  0  0
 266  1  0   0   0   0  0  0
 267  0 120   0   0   0  0  0
 268  2  0   0   0   0  0  0
 269  0 121   0   0   0  0  0
 270  1  0   0   0   0  0  0
 271  0 122   0   0   0  0  0
 272  1  0   0   0   0  0  0
 273  0 123   0   0   0  0  0
 274  2  0   0   0   0  0  0
 275  0 124   0   0   0  0  0
 276  1  0   0   0   0  0  0
 277  0 125   0   0   0  0  0
 278  1  0   0   0   0  0  0
 279  0 126   0   0   0  0  0
 280  2  0   0   0   0  0  0
 281  0 127   0   0   0  0  0
 282  1  0   0   0   0  0  0
 283  0 128   0   0   0  0  0
 284  1  0   0   0   0  0  0
 285  0 129   0   0   0  0  0
 286  2  0   0   0   0  0  0
 287  0 130   0   0   0  0  0
 288  1  0   0   0   0  0  0
 289  0 131   0   0   0  0  0
 290  1  0   0   0   0  0  0
 291  0 132   0   0   0  0  0
 292  2  0   0   0   0  0  0
 293  0 133   0   0   0  0  0
 294  1  0   0   0   0  0  0
 295  0 134   0   0   0  0  0
 296  1  0   0   0   0  0  0
 297  0 135   0   0   0  0  0
 298  2  0   0   0   0  0  0
 299  0 136   0   0   0  0  0
 300  1  0   0   0   0  0  0
 301  0 137   0   0   0  0  0
 302  1  0   0   0   0  0  0
 303  0 138   0   0   0  0  0
 304  3  0   0   0   0  0  0
 305  0  0   1   1   1  0  0
 306  3  0   0   0   0  0  0
 307  0  0   0   0   0  1  0
 308 10  0   0   0   0  0  0
 309  0 139   0   0   0  0  0
 310  1  0   0   0   0  0  0
[RF]
1      6.62834 1 2 100 0 -0.698132
2      42.5764 3 4 100 1021.72 0.872665
3      6.62834 1 2 100 0 3.52568
4      6.62834 1 2 100 0 0.174533
5      42.5764 3 4 100 1021.72 1.74533
6      6.62834 1 2 100 0 4.39834
7      8.61341 1 2 100 0 -0.698132
8      55.3493 3 4 100 1021.72 0.872665
9      8.61341 1 2 100 0 3.52568
10      8.61341 1 2 100 0 0.174533
11      55.3493 3 4 100 1021.72 1.74533
12      8.61341 1 2 100 0 4.39834
13      8.61341 1 2 100 0 1.0472
14      55.3493 3 4 100 1021.72 2.61799
15      8.61341 1 2 100 0 5.27101
16      8.61341 1 2 100 0 1.91986
17      55.3493 3 4 100 1021.72 3.49066
18      8.61341 1 2 100 0 6.14367
19      8.61341 1 2 100 0 2.79253
20      55.3493 3 4 100 1021.72 4.36332
21      8.61341 1 2 100 0 7.01634
22      11.2559 1 2 100 0 -0.698132
23      72.3798 3 4 100 1021.72 0.872665
24      11.2559 1 2 100 0 3.52568
25      11.2559 1 2 100 0 0.174533
26      72.3798 3 4 100 1021.72 1.74533
27      11.2559 1 2 100 0 4.39834
28      11.2559 1 2 100 0 1.0472
29      72.3798 3 4 100 1021.72 2.61799
30      11.2559 1 2 100 0 5.27101
31      11.2559 1 2 100 0 1.91986
32      72.3798 3 4 100 1021.72 3.49066
33      11.2559 1 2 100 0 6.14367
34      11.2559 1 2 100 0 2.79253
35      72.3798 3 4 100 1021.72 4.36332
36      11.2559 1 2 100 0 7.01634
37      11.2559 1 2 100 0 3.66519
38      72.3798 3 4 100 1021.72 5.23599
39      11.2559 1 2 100 0 7.889
40      11.2559 1 2 100 0 4.53786
41      72.3798 3 4 100 1021.72 6.10865
42      11.2559 1 2 100 0 8.76166
43      12.5749 1 2 100 0 -0.698132
44      80.8951 3 4 100 1021.72 0.872665
45      12.5749 1 2 100 0 3.52568
46      12.5749 1 2 100 0 0.174533
47      80.8951 3 4 100 1021.72 1.74533
48      12.5749 1 2 100 0 4.39834
49      12.5749 1 2 100 0 1.0472
50      80.8951 3 4 100 1021.72 2.61799
51      12.5749 1 2 100 0 5.27101
52      12.5749 1 2 100 0 1.91986
53      80.8951 3 4 100 1021.72 3.49066
54      12.5749 1 2 100 0 6.14367
55      12.5749 1 2 100 0 2.79253
56      80.8951 3 4 100 1021.72 4.36332
57      12.5749 1 2 100 0 7.01634
58      12.5749 1 2 100 0 3.66519
59      80.8951 3 4 100 1021.72 5.23599
60      12.5749 1 2 100 0 7.889
61      12.5749 1 2 100 0 4.53786
62      80.8951 3 4 100 1021.72 6.10865
63      12.5749 1 2 100 0 8.76166
64      12.5749 1 2 100 0 5.41052
65      80.8951 3 4 100 1021.72 6.98132
66      12.5749 1 2 100 0 9.63433
67      12.5749 1 2 100 0 6.28319
68      80.8951 3 4 100 1021.72 7.85398
69      12.5749 1 2 100 0 10.507
70      6.48121 1 2 100 0 -0.698132
71       46.834 3 4 100 1149.44 0.872665
72      6.48121 1 2 100 0 8.37334
73      6.48121 1 2 100 0 0.174533
74       46.834 3 4 100 1149.44 1.74533
75      6.48121 1 2 100 0 9.24601
76      6.48121 1 2 100 0 1.0472
77       46.834 3 4 100 1149.44 2.61799
78      6.48121 1 2 100 0 10.1187
79      6.48121 1 2 100 0 1.91986
80       46.834 3 4 100 1149.44 3.49066
81      6.48121 1 2 100 0 10.9913
82      6.48121 1 2 100 0 2.79253
83       46.834 3 4 100 1149.44 4.36332
84      6.48121 1 2 100 0 11.864
85      6.48121 1 2 100 0 3.66519
86       46.834 3 4 100 1149.44 5.23599
87      6.48121 1 2 100 0 12.7367
88      6.48121 1 2 100 0 4.53786
89       46.834 3 4 100 1149.44 6.10865
90      6.48121 1 2 100 0 13.6093
91      6.48121 1 2 100 0 5.41052
92       46.834 3 4 100 1149.44 6.98132
93      6.48121 1 2 100 0 14.482
94      6.48121 1 2 100 0 6.28319
95       46.834 3 4 100 1149.44 7.85398
96      6.48121 1 2 100 0 15.3547
97      8.24599 1 2 100 0 -0.698132
98      59.6069 3 4 100 1149.44 0.872665
99      8.24599 1 2 100 0 8.37334
100      8.24599 1 2 100 0 0.174533
101      59.6069 3 4 100 1149.44 1.74533
102      8.24599 1 2 100 0 9.24601
103      10.5958 1 2 100 0 -0.698132
104      76.6375 3 4 100 1149.44 0.872665
105      10.5958 1 2 100 0 8.37334
106      10.5958 1 2 100 0 0.174533
107      76.6375 3 4 100 1149.44 1.74533
108      10.5958 1 2 100 0 9.24601
109      10.5958 1 2 100 0 1.0472
110      76.6375 3 4 100 1149.44 2.61799
111      10.5958 1 2 100 0 10.1187
112      10.5958 1 2 100 0 1.91986
113      76.6375 3 4 100 1149.44 3.49066
114      10.5958 1 2 100 0 10.9913
115      10.5958 1 2 100 0 2.79253
116      76.6375 3 4 100 1149.44 4.36332
117      10.5958 1 2 100 0 11.864
118      7.06967 1 2 100 0 -0.698132
119      51.0917 3 4 100 1149.44 0.872665
120      7.06967 1 2 100 0 8.37334
121      7.06967 1 2 100 0 0.174533
122      51.0917 3 4 100 1149.44 1.74533
123      7.06967 1 2 100 0 9.24601
124      7.06967 1 2 100 0 1.0472
125      51.0917 3 4 100 1149.44 2.61799
126      7.06967 1 2 100 0 10.1187
127      7.06967 1 2 100 0 1.91986
128      51.0917 3 4 100 1149.44 3.49066
129      7.06967 1 2 100 0 10.9913
130      7.06967 1 2 100 0 2.79253
131      51.0917 3 4 100 1149.44 4.36332
132      7.06967 1 2 100 0 11.864
133      7.06967 1 2 100 0 3.66519
134      51.0917 3 4 100 1149.44 5.23599
135      7.06967 1 2 100 0 12.7367
136      7.06967 1 2 100 0 4.53786
137      51.0917 3 4 100 1149.44 6.10865
138      7.06967 1 2 100 0 13.6093
139      6.89315 1 2 100 0 -0.698132
140      55.3493 3 4 100 1277.15 0.872665
141      6.89315 1 2 100 0 6.93782
142      6.89315 1 2 100 0 0.174533
143      55.3493 3 4 100 1277.15 1.74533
144      6.89315 1 2 100 0 7.81049
145      6.89315 1 2 100 0 1.0472
146      55.3493 3 4 100 1277.15 2.61799
147      6.89315 1 2 100 0 8.68315
148      6.89315 1 2 100 0 1.91986
149      55.3493 3 4 100 1277.15 3.49066
150      6.89315 1 2 100 0 9.55582
151      6.89315 1 2 100 0 2.79253
152      55.3493 3 4 100 1277.15 4.36332
153      6.89315 1 2 100 0 10.4285
154      6.89315 1 2 100 0 3.66519
155      55.3493 3 4 100 1277.15 5.23599
156      6.89315 1 2 100 0 11.3011
157      6.89315 1 2 100 0 4.53786
158      55.3493 3 4 100 1277.15 6.10865
159      6.89315 1 2 100 0 12.1738
160      7.95199 1 2 100 0 -0.698132
161      63.8646 3 4 100 1277.15 0.872665
162      7.95199 1 2 100 0 6.93782
163      7.95199 1 2 100 0 0.174533
164      63.8646 3 4 100 1277.15 1.74533
165      7.95199 1 2 100 0 7.81049
166      7.95199 1 2 100 0 1.0472
167      63.8646 3 4 100 1277.15 2.61799
168      7.95199 1 2 100 0 8.68315
169      7.95199 1 2 100 0 1.91986
170      63.8646 3 4 100 1277.15 3.49066
171      7.95199 1 2 100 0 9.55582
172      7.95199 1 2 100 0 2.79253
173      63.8646 3 4 100 1277.15 4.36332
174      7.95199 1 2 100 0 10.4285
175      7.95199 1 2 100 0 3.66519
176      63.8646 3 4 100 1277.15 5.23599
177      7.95199 1 2 100 0 11.3011
178      7.95199 1 2 100 0 4.53786
179      63.8646 3 4 100 1277.15 6.10865
180      7.95199 1 2 100 0 12.1738
181      7.95199 1 2 100 0 5.41052
182      63.8646 3 4 100 1277.15 6.98132
183      7.95199 1 2 100 0 13.0465
184      7.95199 1 2 100 0 6.28319
185      63.8646 3 4 100 1277.15 7.85398
186      7.95199 1 2 100 0 13.9191
187      10.0675 1 2 100 0 -0.698132
188      80.8951 3 4 100 1277.15 0.872665
189      10.0675 1 2 100 0 6.93782
190      10.0675 1 2 100 0 0.174533
191      80.8951 3 4 100 1277.15 1.74533
192      10.0675 1 2 100 0 7.81049
193      4.77373 1 2 100 0 -0.698132
194      38.3187 3 4 100 1277.15 0.872665
195      4.77373 1 2 100 0 6.93782
196      4.77373 1 2 100 0 0.174533
197      38.3187 3 4 100 1277.15 1.74533
198      4.77373 1 2 100 0 7.81049
199      4.77373 1 2 100 0 1.0472
200      38.3187 3 4 100 1277.15 2.61799
201      4.77373 1 2 100 0 8.68315
202      4.77373 1 2 100 0 1.91986
203      38.3187 3 4 100 1277.15 3.49066
204      4.77373 1 2 100 0 9.55582
205      4.77373 1 2 100 0 2.79253
206      38.3187 3 4 100 1277.15 4.36332
207      4.77373 1 2 100 0 10.4285
208      6.74871 1 2 100 0 -0.698132
209      59.6069 3 4 100 1404.87 0.872665
210      6.74871 1 2 100 0 5.5023
211      6.74871 1 2 100 0 0.174533
212      59.6069 3 4 100 1404.87 1.74533
213      6.74871 1 2 100 0 6.37497
214      6.74871 1 2 100 0 1.0472
215      59.6069 3 4 100 1404.87 2.61799
216      6.74871 1 2 100 0 7.24763
217      6.74871 1 2 100 0 1.91986
218      59.6069 3 4 100 1404.87 3.49066
219      6.74871 1 2 100 0 8.1203
220      6.74871 1 2 100 0 2.79253
221      59.6069 3 4 100 1404.87 4.36332
222      6.74871 1 2 100 0 8.99296
223      8.19254 1 2 100 0 -0.698132
224      72.3798 3 4 100 1404.87 0.872665
225      8.19254 1 2 100 0 5.5023
226      8.19254 1 2 100 0 0.174533
227      72.3798 3 4 100 1404.87 1.74533
228      8.19254 1 2 100 0 6.37497
229      8.19254 1 2 100 0 1.0472
230      72.3798 3 4 100 1404.87 2.61799
231      8.19254 1 2 100 0 7.24763
232      8.19254 1 2 100 0 1.91986
233      72.3798 3 4 100 1404.87 3.49066
234      8.19254 1 2 100 0 8.1203
235      8.19254 1 2 100 0 2.79253
236      72.3798 3 4 100 1404.87 4.36332
237      8.19254 1 2 100 0 8.99296
238      8.19254 1 2 100 0 3.66519
239      72.3798 3 4 100 1404.87 5.23599
240      8.19254 1 2 100 0 9.86563
241      8.19254 1 2 100 0 4.53786
242      72.3798 3 4 100 1404.87 6.10865
243      8.19254 1 2 100 0 10.7383
244      4.82192 1 2 100 0 -0.698132
245      42.5764 3 4 100 1404.87 0.872665
246      4.82192 1 2 100 0 5.5023
247      4.82192 1 2 100 0 0.174533
248      42.5764 3 4 100 1404.87 1.74533
249      4.82192 1 2 100 0 6.37497
250      4.82192 1 2 100 0 1.0472
251      42.5764 3 4 100 1404.87 2.61799
252      4.82192 1 2 100 0 7.24763
253      4.82192 1 2 100 0 1.91986
254      42.5764 3 4 100 1404.87 3.49066
255      4.82192 1 2 100 0 8.1203
256      4.82192 1 2 100 0 2.79253
257      42.5764 3 4 100 1404.87 4.36332
258      4.82192 1 2 100 0 8.99296
259      4.82192 1 2 100 0 3.66519
260      42.5764 3 4 100 1404.87 5.23599
261      4.82192 1 2 100 0 9.86563
262      4.82192 1 2 100 0 4.53786
263      42.5764 3 4 100 1404.87 6.10865
264      4.82192 1 2 100 0 10.7383
265      4.82192 1 2 100 0 5.41052
266      42.5764 3 4 100 1404.87 6.98132
267      4.82192 1 2 100 0 11.611
268      4.82192 1 2 100 0 6.28319
269      42.5764 3 4 100 1404.87 7.85398
270      4.82192 1 2 100 0 12.4836
271      6.11899 1 2 100 0 -0.698132
272      63.8646 3 4 100 1660.3 0.872665
273      6.11899 1 2 100 0 2.63127
274      6.11899 1 2 100 0 0.174533
275      63.8646 3 4 100 1660.3 1.74533
276      6.11899 1 2 100 0 3.50393
277       7.3412 1 2 100 0 -0.698132
278      76.6375 3 4 100 1660.3 0.872665
279       7.3412 1 2 100 0 2.63127
280       7.3412 1 2 100 0 0.174533
281      76.6375 3 4 100 1660.3 1.74533
282       7.3412 1 2 100 0 3.50393
283       7.3412 1 2 100 0 1.0472
284      76.6375 3 4 100 1660.3 2.61799
285       7.3412 1 2 100 0 4.37659
286       7.3412 1 2 100 0 1.91986
287      76.6375 3 4 100 1660.3 3.49066
288       7.3412 1 2 100 0 5.24926
289       7.3412 1 2 100 0 2.79253
290      76.6375 3 4 100 1660.3 4.36332
291       7.3412 1 2 100 0 6.12192
292      4.08044 1 2 100 0 -0.698132
293      42.5764 3 4 100 1660.3 0.872665
294      4.08044 1 2 100 0 2.63127
295      4.08044 1 2 100 0 0.174533
296      42.5764 3 4 100 1660.3 1.74533
297      4.08044 1 2 100 0 3.50393
298      4.08044 1 2 100 0 1.0472
299      42.5764 3 4 100 1660.3 2.61799
300      4.08044 1 2 100 0 4.37659
301      4.08044 1 2 100 0 1.91986
302      42.5764 3 4 100 1660.3 3.49066
303      4.08044 1 2 100 0 5.24926
304      4.08044 1 2 100 0 2.79253
305      42.5764 3 4 100 1660.3 4.36332
306      4.08044 1 2 100 0 6.12192
307      4.08044 1 2 100 0 3.66519
308      42.5764 3 4 100 1660.3 5.23599
309      4.08044 1 2 100 0 6.99459
310      4.08044 1 2 100 0 4.53786
311      42.5764 3 4 100 1660.3 6.10865
312      4.08044 1 2 100 0 7.86725
313      4.48828 1 2 100 0 -0.698132
314       46.834 3 4 100 1660.3 0.872665
315      4.48828 1 2 100 0 2.63127
316      4.48828 1 2 100 0 0.174533
317       46.834 3 4 100 1660.3 1.74533
318      4.48828 1 2 100 0 3.50393
319      4.48828 1 2 100 0 1.0472
320       46.834 3 4 100 1660.3 2.61799
321      4.48828 1 2 100 0 4.37659
322      4.48828 1 2 100 0 1.91986
323       46.834 3 4 100 1660.3 3.49066
324      4.48828 1 2 100 0 5.24926
325      4.48828 1 2 100 0 2.79253
326       46.834 3 4 100 1660.3 4.36332
327      4.48828 1 2 100 0 6.12192
328      4.48828 1 2 100 0 3.66519
329       46.834 3 4 100 1660.3 5.23599
330      4.48828 1 2 100 0 6.99459
331      4.48828 1 2 100 0 4.53786
332       46.834 3 4 100 1660.3 6.10865
333      4.48828 1 2 100 0 7.86725
334      4.48828 1 2 100 0 5.41052
335       46.834 3 4 100 1660.3 6.98132
336      4.48828 1 2 100 0 8.73992
337      4.48828 1 2 100 0 6.28319
338       46.834 3 4 100 1660.3 7.85398
339      4.48828 1 2 100 0 9.61258
340      6.01031 1 2 100 0 -0.698132
341      72.3798 3 4 100 1915.73 0.872665
342      6.01031 1 2 100 0 6.04341
343      6.01031 1 2 100 0 0.174533
344      72.3798 3 4 100 1915.73 1.74533
345      6.01031 1 2 100 0 6.91608
346      6.01031 1 2 100 0 1.0472
347      72.3798 3 4 100 1915.73 2.61799
348      6.01031 1 2 100 0 7.78874
349      6.71661 1 2 100 0 -0.698132
350      80.8951 3 4 100 1915.73 0.872665
351      6.71661 1 2 100 0 6.04341
352      6.71661 1 2 100 0 0.174533
353      80.8951 3 4 100 1915.73 1.74533
354      6.71661 1 2 100 0 6.91608
355      6.71661 1 2 100 0 1.0472
356      80.8951 3 4 100 1915.73 2.61799
357      6.71661 1 2 100 0 7.78874
358      6.71661 1 2 100 0 1.91986
359      80.8951 3 4 100 1915.73 3.49066
360      6.71661 1 2 100 0 8.66141
361      6.71661 1 2 100 0 2.79253
362      80.8951 3 4 100 1915.73 4.36332
363      6.71661 1 2 100 0 9.53407
364      6.71661 1 2 100 0 3.66519
365      80.8951 3 4 100 1915.73 5.23599
366      6.71661 1 2 100 0 10.4067
367      3.53658 1 2 100 0 -0.698132
368      42.5764 3 4 100 1915.73 0.872665
369      3.53658 1 2 100 0 6.04341
370      3.53658 1 2 100 0 0.174533
371      42.5764 3 4 100 1915.73 1.74533
372      3.53658 1 2 100 0 6.91608
373      3.53658 1 2 100 0 1.0472
374      42.5764 3 4 100 1915.73 2.61799
375      3.53658 1 2 100 0 7.78874
376      3.53658 1 2 100 0 1.91986
377      42.5764 3 4 100 1915.73 3.49066
378      3.53658 1 2 100 0 8.66141
379      3.53658 1 2 100 0 2.79253
380      42.5764 3 4 100 1915.73 4.36332
381      3.53658 1 2 100 0 9.53407
382      3.53658 1 2 100 0 3.66519
383      42.5764 3 4 100 1915.73 5.23599
384      3.53658 1 2 100 0 10.4067
385      3.53658 1 2 100 0 4.53786
386      42.5764 3 4 100 1915.73 6.10865
387      3.53658 1 2 100 0 11.2794
388      3.53658 1 2 100 0 5.41052
389      42.5764 3 4 100 1915.73 6.98132
390      3.53658 1 2 100 0 12.1521
391      4.59703 1 2 100 0 -0.698132
392      55.3493 3 4 100 1915.73 0.872665
393      4.59703 1 2 100 0 6.04341
394      4.59703 1 2 100 0 0.174533
395      55.3493 3 4 100 1915.73 1.74533
396      4.59703 1 2 100 0 6.91608
397      4.59703 1 2 100 0 1.0472
398      55.3493 3 4 100 1915.73 2.61799
399      4.59703 1 2 100 0 7.78874
400      4.59703 1 2 100 0 1.91986
401      55.3493 3 4 100 1915.73 3.49066
402      4.59703 1 2 100 0 8.66141
403      4.59703 1 2 100 0 2.79253
404      55.3493 3 4 100 1915.73 4.36332
405      4.59703 1 2 100 0 9.53407
406      4.59703 1 2 100 0 3.66519
407      55.3493 3 4 100 1915.73 5.23599
408      4.59703 1 2 100 0 10.4067
409      4.59703 1 2 100 0 4.53786
410      55.3493 3 4 100 1915.73 6.10865
411      4.59703 1 2 100 0 11.2794
412      4.59703 1 2 100 0 5.41052
413      55.3493 3 4 100 1915.73 6.98132
414      4.59703 1 2 100 0 12.1521
415      4.59703 1 2 100 0 6.28319
416      55.3493 3 4 100 1915.73 7.85398
417      4.59703 1 2 100 0 13.0247
418      4.59703 1 2 100 0 7.15585
419      55.3493 3 4 100 1915.73 8.72665
420      4.59703 1 2 100 0 13.8974
421      76.6375 3 4 100 2554.31 0.872665
422      4.77373 1 2 100 0 5.149
423      76.6375 3 4 100 2554.31 1.74533
424      4.77373 1 2 100 0 6.02167
425      76.6375 3 4 100 2554.31 2.61799
426      4.77373 1 2 100 0 6.89433
427      76.6375 3 4 100 2554.31 3.49066
428      4.77373 1 2 100 0 7.76699
429      76.6375 3 4 100 2554.31 4.36332
430      4.77373 1 2 100 0 8.63966
431      4.77373 1 2 100 0 3.66519
432      76.6375 3 4 100 2554.31 5.23599
433      4.77373 1 2 100 0 9.51232
434      4.77373 1 2 100 0 4.53786
435      76.6375 3 4 100 2554.31 6.10865
436      4.77373 1 2 100 0 10.385
437      4.77373 1 2 100 0 5.41052
438      76.6375 3 4 100 2554.31 6.98132
439      4.77373 1 2 100 0 11.2577
440      4.77373 1 2 100 0 6.28319
441      76.6375 3 4 100 2554.31 7.85398
442      4.77373 1 2 100 0 12.1303
443      4.77373 1 2 100 0 7.15585
444      76.6375 3 4 100 2554.31 8.72665
445      4.77373 1 2 100 0 13.003
446      42.5764 3 4 100 2554.31 0.872665
447      42.5764 3 4 100 2554.31 1.74533
448      42.5764 3 4 100 2554.31 2.61799
449      2.91783 1 2 100 0 -0.698132
450       46.834 3 4 100 2554.31 0.872665
451      2.91783 1 2 100 0 5.149
452      2.91783 1 2 100 0 0.174533
453       46.834 3 4 100 2554.31 1.74533
454      2.91783 1 2 100 0 6.02167
455      2.91783 1 2 100 0 1.0472
456       46.834 3 4 100 2554.31 2.61799
457      2.91783 1 2 100 0 6.89433
458      2.91783 1 2 100 0 1.91986
459       46.834 3 4 100 2554.31 3.49066
460      2.91783 1 2 100 0 7.76699
461      2.91783 1 2 100 0 2.79253
462       46.834 3 4 100 2554.31 4.36332
463      2.91783 1 2 100 0 8.63966
464      2.91783 1 2 100 0 3.66519
465       46.834 3 4 100 2554.31 5.23599
466      2.91783 1 2 100 0 9.51232
467      3.71334 1 2 100 0 -0.698132
468      59.6069 3 4 100 2554.31 0.872665
469      3.71334 1 2 100 0 5.149
470      3.71334 1 2 100 0 0.174533
471      59.6069 3 4 100 2554.31 1.74533
472      3.71334 1 2 100 0 6.02167
473      3.71334 1 2 100 0 1.0472
474      59.6069 3 4 100 2554.31 2.61799
475      3.71334 1 2 100 0 6.89433
476      3.71334 1 2 100 0 1.91986
477      59.6069 3 4 100 2554.31 3.49066
478      3.71334 1 2 100 0 7.76699
479      3.71334 1 2 100 0 2.79253
480      59.6069 3 4 100 2554.31 4.36332
481      3.71334 1 2 100 0 8.63966
482      3.71334 1 2 100 0 3.66519
483      59.6069 3 4 100 2554.31 5.23599
484      3.71334 1 2 100 0 9.51232
485      3.71334 1 2 100 0 4.53786
486      59.6069 3 4 100 2554.31 6.10865
487      3.71334 1 2 100 0 10.385
488      3.71334 1 2 100 0 5.41052
489      59.6069 3 4 100 2554.31 6.98132
490      3.71334 1 2 100 0 11.2577
491       4.0315 1 2 100 0 -0.698132
492      80.8951 3 4 100 3192.88 0.872665
493       4.0315 1 2 100 0 4.25459
494       4.0315 1 2 100 0 0.174533
495      80.8951 3 4 100 3192.88 1.74533
496       4.0315 1 2 100 0 5.12725
497       4.0315 1 2 100 0 1.0472
498      80.8951 3 4 100 3192.88 2.61799
499       4.0315 1 2 100 0 5.99992
500       4.0315 1 2 100 0 1.91986
501      80.8951 3 4 100 3192.88 3.49066
502       4.0315 1 2 100 0 6.87258
503       4.0315 1 2 100 0 2.79253
504      80.8951 3 4 100 3192.88 4.36332
505       4.0315 1 2 100 0 7.74525
506       4.0315 1 2 100 0 3.66519
507      80.8951 3 4 100 3192.88 5.23599
508       4.0315 1 2 100 0 8.61791
509       4.0315 1 2 100 0 4.53786
510      80.8951 3 4 100 3192.88 6.10865
511       4.0315 1 2 100 0 9.49058
512       4.0315 1 2 100 0 5.41052
513      80.8951 3 4 100 3192.88 6.98132
514       4.0315 1 2 100 0 10.3632
515       46.834 3 4 100 3192.88 0.872665
516       46.834 3 4 100 3192.88 1.74533
517       46.834 3 4 100 3192.88 2.61799
518       46.834 3 4 100 3192.88 3.49066
519       46.834 3 4 100 3192.88 4.36332
520       46.834 3 4 100 3192.88 5.23599
521       46.834 3 4 100 3192.88 6.10865
522       46.834 3 4 100 3192.88 6.98132
523       46.834 3 4 100 3192.88 7.85398
524       46.834 3 4 100 3192.88 8.72665
525      55.3493 3 4 100 3192.88 0.872665
526      55.3493 3 4 100 3192.88 1.74533
527      55.3493 3 4 100 3192.88 2.61799
528      42.5764 3 4 100 3192.88 0.872665
529      42.5764 3 4 100 3192.88 1.74533
530      42.5764 3 4 100 3192.88 2.61799
531      42.5764 3 4 100 3192.88 3.49066
532      42.5764 3 4 100 3192.88 4.36332
533      42.5764 3 4 100 3192.88 5.23599
534      55.3493 3 4 100 4470.04 0.872665
535      55.3493 3 4 100 4470.04 1.74533
536      55.3493 3 4 100 4470.04 2.61799
537      55.3493 3 4 100 4470.04 3.49066
538      55.3493 3 4 100 4470.04 4.36332
